ID,count
18288,17.868404106083748
18289,14.25992130359698
18290,12.06828558529676
18291,9.97159322830801
18292,8.393120154464139
18293,7.513226996624388
18294,8.078759192262286
18295,9.369226818917175
18296,10.789249266358299
18297,13.94206744181511
18298,19.789181338769648
18299,21.938902262109625
18300,22.171338852343734
18301,19.608820705910404
18302,20.966606033562073
18303,20.701780738131415
18304,20.173400292571934
18305,20.64335405424743
18306,21.1514121749777
18307,22.443785019585338
18308,21.567702297651046
18309,20.131167961286202
18310,20.20420131614118
18311,19.726626682654743
18312,17.86951191667329
18313,14.26080539440511
18314,12.069033798427022
18315,9.97221145008693
18316,8.393640513603724
18317,7.513692803888376
18318,8.07926006155819
18319,9.369807695005727
18320,10.789918181417502
18321,13.942931826225742
18322,19.790408234272753
18323,21.940262436644776
18324,22.17271343755118
18325,19.61003641936178
18326,20.967905927388788
18327,20.70306421324133
18328,20.174651008995095
18329,20.644633907002557
18330,21.15272352647009
18331,22.445176495990644
18332,21.569039458421283
18333,20.13241605937683
18334,20.20545394217529
18335,19.727849699875822
18336,17.87061972726283
18337,14.26168948521324
18338,12.069782011557283
18339,9.97282967186585
18340,8.39416087274331
18341,7.5141586111523635
18342,8.079760930854093
18343,9.37038857109428
18344,10.790587096476704
18345,13.943796210636371
18346,19.791635129775862
18347,21.941622611179927
18348,22.17408802275863
18349,19.61125213281316
18350,20.969205821215503
18351,20.70434768835125
18352,20.175901725418257
18353,20.64591375975769
18354,21.154034877962484
18355,22.44656797239595
18356,21.57037661919152
18357,20.133664157467454
18358,20.2067065682094
18359,19.729072717096905
18360,17.871727537852372
18361,14.262573576021373
18362,12.070530224687547
18363,9.973447893644769
18364,8.394681231882895
18365,7.514624418416352
18366,8.080261800149998
18367,9.370969447182832
18368,10.791256011535907
18369,13.944660595047003
18370,19.792862025278968
18371,21.942982785715078
18372,22.17546260796608
18373,19.612467846264536
18374,20.970505715042215
18375,20.705631163461163
18376,20.177152441841418
18377,20.64719361251282
18378,21.155346229454878
18379,22.447959448801257
18380,21.571713779961758
18381,20.13491225555808
18382,20.207959194243504
18383,19.730295734317988
18384,17.872835348441914
18385,14.2634576668295
18386,12.071278437817806
18387,9.974066115423687
18388,8.39520159102248
18389,7.515090225680339
18390,8.0807626694459
18391,9.371550323271384
18392,10.791924926595108
18393,13.94552497945763
18394,19.79408892078207
18395,21.94434296025023
18396,22.176837193173526
18397,19.613683559715913
18398,20.971805608868927
18399,20.706914638571075
18400,20.178403158264576
18401,20.648473465267948
18402,21.156657580947268
18403,22.44935092520656
18404,21.573050940731996
18405,20.136160353648705
18406,20.20921182027761
18407,19.731518751539063
18408,17.873943159031455
18409,14.26434175763763
18410,12.072026650948068
18411,9.974684337202607
18412,8.395721950162066
18413,7.515556032944327
18414,8.081263538741805
18415,9.372131199359936
18416,10.792593841654309
18417,13.946389363868262
18418,19.79531581628518
18419,21.94570313478538
18420,22.178211778380973
18421,19.614899273167293
18422,20.97310550269564
18423,20.70819811368099
18424,20.179653874687737
18425,20.649753318023077
18426,21.157968932439662
18427,22.450742401611866
18428,21.574388101502233
18429,20.137408451739333
18430,20.21046444631172
18431,19.732741768760146
18432,17.875050969620997
18433,14.265225848445763
18434,12.072774864078331
18435,9.975302558981527
18436,8.396242309301652
18437,7.516021840208316
18438,8.081764408037708
18439,9.372712075448488
18440,10.793262756713512
18441,13.947253748278893
18442,19.796542711788284
18443,21.94706330932053
18444,22.179586363588424
18445,19.61611498661867
18446,20.974405396522354
18447,20.709481588790904
18448,20.1809045911109
18449,20.651033170778206
18450,21.159280283932056
18451,22.45213387801717
18452,21.57572526227247
18453,20.13865654982996
18454,20.211717072345827
18455,19.733964785981225
18456,17.876158780210538
18457,14.266109939253893
18458,12.073523077208593
18459,9.975920780760447
18460,8.396762668441237
18461,7.516487647472304
18462,8.082265277333612
18463,9.37329295153704
18464,10.793931671772715
18465,13.948118132689522
18466,19.79776960729139
18467,21.94842348385568
18468,22.18096094879587
18469,19.61733070007005
18470,20.97570529034907
18471,20.71076506390082
18472,20.182155307534064
18473,20.65231302353334
18474,21.16059163542445
18475,22.453525354422478
18476,21.577062423042708
18477,20.139904647920588
18478,20.212969698379936
18479,19.735187803202308
18480,17.87726659080008
18481,14.266994030062024
18482,12.074271290338855
18483,9.976539002539367
18484,8.397283027580823
18485,7.516953454736292
18486,8.082766146629517
18487,9.373873827625593
18488,10.794600586831917
18489,13.948982517100154
18490,19.7989965027945
18491,21.94978365839083
18492,22.182335534003318
18493,19.618546413521425
18494,20.97700518417578
18495,20.712048539010738
18496,20.183406023957225
18497,20.653592876288467
18498,21.16190298691684
18499,22.454916830827784
18500,21.578399583812946
18501,20.141152746011212
18502,20.214222324414045
18503,19.736410820423387
18504,17.87837440138962
18505,14.267878120870154
18506,12.075019503469118
18507,9.977157224318285
18508,8.397803386720408
18509,7.5174192620002795
18510,8.08326701592542
18511,9.374454703714145
18512,10.79526950189112
18513,13.949846901510783
18514,19.800223398297604
18515,21.951143832925982
18516,22.18371011921077
18517,19.619762126972805
18518,20.978305078002496
18519,20.713332014120653
18520,20.184656740380387
18521,20.654872729043596
18522,21.163214338409233
18523,22.45630830723309
18524,21.579736744583183
18525,20.14240084410184
18526,20.21547495044815
18527,19.73763383764447
18528,17.879482211979163
18529,14.268762211678284
18530,12.07576771659938
18531,9.977775446097205
18532,8.398323745859994
18533,7.517885069264268
18534,8.083767885221325
18535,9.375035579802697
18536,10.795938416950323
18537,13.950711285921415
18538,19.80145029380071
18539,21.952504007461133
18540,22.185084704418216
18541,19.62097784042418
18542,20.979604971829207
18543,20.714615489230567
18544,20.185907456803548
18545,20.656152581798725
18546,21.164525689901627
18547,22.457699783638397
18548,21.581073905353424
18549,20.143648942192467
18550,20.21672757648226
18551,19.73885685486555
18552,17.880590022568704
18553,14.269646302486416
18554,12.076515929729641
18555,9.978393667876125
18556,8.39884410499958
18557,7.518350876528256
18558,8.084268754517229
18559,9.37561645589125
18560,10.796607332009524
18561,13.951575670332044
18562,19.802677189303818
18563,21.953864181996284
18564,22.186459289625667
18565,19.62219355387556
18566,20.980904865655923
18567,20.715898964340482
18568,20.18715817322671
18569,20.657432434553858
18570,21.16583704139402
18571,22.459091260043703
18572,21.58241106612366
18573,20.144897040283094
18574,20.21798020251637
18575,19.740079872086632
18576,17.881697833158245
18577,14.270530393294546
18578,12.077264142859905
18579,9.979011889655045
18580,8.399364464139165
18581,7.518816683792244
18582,8.084769623813132
18583,9.376197331979801
18584,10.797276247068726
18585,13.952440054742675
18586,19.803904084806923
18587,21.955224356531435
18588,22.187833874833114
18589,19.623409267326938
18590,20.982204759482634
18591,20.717182439450397
18592,20.18840888964987
18593,20.658712287308987
18594,21.167148392886414
18595,22.46048273644901
18596,21.5837482268939
18597,20.146145138373722
18598,20.219232828550478
18599,19.741302889307715
18600,17.882805643747787
18601,14.271414484102676
18602,12.078012355990166
18603,9.979630111433965
18604,8.39988482327875
18605,7.519282491056233
18606,8.085270493109038
18607,9.376778208068353
18608,10.79794516212793
18609,13.953304439153305
18610,19.805130980310032
18611,21.956584531066586
18612,22.189208460040565
18613,19.624624980778318
18614,20.98350465330935
18615,20.718465914560312
18616,20.189659606073032
18617,20.659992140064116
18618,21.168459744378808
18619,22.461874212854315
18620,21.585085387664137
18621,20.147393236464346
18622,20.220485454584587
18623,19.742525906528794
18624,17.883913454337325
18625,14.272298574910806
18626,12.078760569120426
18627,9.980248333212883
18628,8.400405182418336
18629,7.51974829832022
18630,8.08577136240494
18631,9.377359084156904
18632,10.79861407718713
18633,13.954168823563935
18634,19.806357875813134
18635,21.957944705601733
18636,22.190583045248008
18637,19.625840694229694
18638,20.98480454713606
18639,20.719749389670223
18640,20.19091032249619
18641,20.661271992819245
18642,21.169771095871198
18643,22.463265689259618
18644,21.58642254843437
18645,20.14864133455497
18646,20.221738080618692
18647,19.743748923749873
18648,17.885021264926866
18649,14.273182665718936
18650,12.07950878225069
18651,9.980866554991803
18652,8.400925541557921
18653,7.520214105584207
18654,8.086272231700844
18655,9.377939960245456
18656,10.799282992246333
18657,13.955033207974564
18658,19.80758477131624
18659,21.959304880136884
18660,22.19195763045546
18661,19.62705640768107
18662,20.986104440962773
18663,20.721032864780142
18664,20.192161038919355
18665,20.662551845574374
18666,21.17108244736359
18667,22.464657165664924
18668,21.58775970920461
18669,20.149889432645598
18670,20.2229907066528
18671,19.744971940970952
18672,17.886129075516408
18673,14.274066756527066
18674,12.080256995380951
18675,9.981484776770722
18676,8.401445900697507
18677,7.520679912848196
18678,8.086773100996748
18679,9.378520836334008
18680,10.799951907305536
18681,13.955897592385195
18682,19.80881166681935
18683,21.960665054672035
18684,22.193332215662906
18685,19.62827212113245
18686,20.98740433478949
18687,20.722316339890057
18688,20.193411755342517
18689,20.663831698329506
18690,21.172393798855982
18691,22.466048642070227
18692,21.58909686997485
18693,20.151137530736225
18694,20.224243332686907
18695,19.746194958192035
18696,17.88723688610595
18697,14.274950847335198
18698,12.081005208511213
18699,9.982102998549642
18700,8.401966259837092
18701,7.521145720112184
18702,8.087273970292651
18703,9.37910171242256
18704,10.800620822364738
18705,13.956761976795825
18706,19.810038562322454
18707,21.962025229207185
18708,22.194706800870357
18709,19.629487834583827
18710,20.9887042286162
18711,20.72359981499997
18712,20.194662471765678
18713,20.665111551084635
18714,21.173705150348376
18715,22.467440118475533
18716,21.590434030745087
18717,20.152385628826853
18718,20.225495958721016
18719,19.747417975413114
18720,17.88834469669549
18721,14.275834938143328
18722,12.081753421641476
18723,9.982721220328562
18724,8.402486618976678
18725,7.521611527376172
18726,8.087774839588556
18727,9.379682588511113
18728,10.80128973742394
18729,13.957626361206456
18730,19.81126545782556
18731,21.963385403742336
18732,22.196081386077804
18733,19.630703548035207
18734,20.990004122442915
18735,20.724883290109887
18736,20.19591318818884
18737,20.666391403839764
18738,21.17501650184077
18739,22.46883159488084
18740,21.591771191515324
18741,20.15363372691748
18742,20.226748584755125
18743,19.748640992634197
18744,17.889452507285032
18745,14.27671902895146
18746,12.082501634771738
18747,9.983339442107482
18748,8.403006978116263
18749,7.52207733464016
18750,8.08827570888446
18751,9.380263464599667
18752,10.801958652483142
18753,13.958490745617086
18754,19.81249235332867
18755,21.964745578277487
18756,22.197455971285255
18757,19.631919261486583
18758,20.99130401626963
18759,20.7261667652198
18760,20.197163904612
18761,20.667671256594897
18762,21.176327853333163
18763,22.470223071286146
18764,21.59310835228556
18765,20.154881825008104
18766,20.228001210789234
18767,19.749864009855276
18768,17.890560317874574
18769,14.27760311975959
18770,12.083249847902
18771,9.983957663886402
18772,8.403527337255849
18773,7.522543141904149
18774,8.088776578180365
18775,9.380844340688219
18776,10.802627567542345
18777,13.959355130027717
18778,19.813719248831774
18779,21.966105752812638
18780,22.1988305564927
18781,19.633134974937963
18782,20.992603910096342
18783,20.727450240329716
18784,20.198414621035162
18785,20.668951109350026
18786,21.177639204825557
18787,22.471614547691452
18788,21.5944455130558
18789,20.15612992309873
18790,20.229253836823343
18791,19.75108702707636
18792,17.891668128464115
18793,14.27848721056772
18794,12.083998061032261
18795,9.984575885665322
18796,8.404047696395434
18797,7.523008949168137
18798,8.089277447476269
18799,9.38142521677677
18800,10.803296482601548
18801,13.960219514438347
18802,19.81494614433488
18803,21.96746592734779
18804,22.20020514170015
18805,19.63435068838934
18806,20.993903803923057
18807,20.72873371543963
18808,20.199665337458324
18809,20.670230962105155
18810,21.17895055631795
18811,22.473006024096758
18812,21.59578267382604
18813,20.15737802118936
18814,20.23050646285745
18815,19.75231004429744
18816,17.892775939053656
18817,14.279371301375852
18818,12.084746274162525
18819,9.98519410744424
18820,8.40456805553502
18821,7.523474756432125
18822,8.089778316772172
18823,9.382006092865323
18824,10.80396539766075
18825,13.961083898848978
18826,19.816173039837988
18827,21.96882610188294
18828,22.2015797269076
18829,19.63556640184072
18830,20.99520369774977
18831,20.73001719054955
18832,20.200916053881485
18833,20.671510814860284
18834,21.180261907810344
18835,22.474397500502064
18836,21.597119834596278
18837,20.158626119279987
18838,20.231759088891557
18839,19.75353306151852
18840,17.893883749643194
18841,14.28025539218398
18842,12.085494487292785
18843,9.98581232922316
18844,8.405088414674603
18845,7.523940563696112
18846,8.090279186068075
18847,9.382586968953873
18848,10.804634312719951
18849,13.961948283259606
18850,19.81739993534109
18851,21.970186276418087
18852,22.202954312115043
18853,19.636782115292092
18854,20.99650359157648
18855,20.73130066565946
18856,20.202166770304647
18857,20.672790667615413
18858,21.181573259302734
18859,22.475788976907367
18860,21.59845699536651
18861,20.15987421737061
18862,20.233011714925663
18863,19.7547560787396
18864,17.894991560232736
18865,14.28113948299211
18866,12.086242700423046
18867,9.98643055100208
18868,8.40560877381419
18869,7.5244063709601
18870,8.090780055363979
18871,9.383167845042426
18872,10.805303227779154
18873,13.962812667670237
18874,19.8186268308442
18875,21.971546450953237
18876,22.204328897322494
18877,19.637997828743472
18878,20.997803485403196
18879,20.732584140769376
18880,20.20341748672781
18881,20.67407052037054
18882,21.182884610795124
18883,22.477180453312673
18884,21.59979415613675
18885,20.16112231546124
18886,20.234264340959772
18887,19.75597909596068
18888,17.896099370822277
18889,14.282023573800242
18890,12.08699091355331
18891,9.987048772780998
18892,8.406129132953776
18893,7.524872178224088
18894,8.091280924659884
18895,9.383748721130978
18896,10.805972142838355
18897,13.963677052080866
18898,19.819853726347304
18899,21.97290662548839
18900,22.20570348252994
18901,19.639213542194852
18902,20.999103379229908
18903,20.73386761587929
18904,20.20466820315097
18905,20.675350373125674
18906,21.184195962287518
18907,22.47857192971798
18908,21.601131316906987
18909,20.162370413551862
18910,20.23551696699388
18911,19.757202113181762
18912,17.89720718141182
18913,14.282907664608372
18914,12.087739126683571
18915,9.987666994559918
18916,8.406649492093361
18917,7.525337985488076
18918,8.091781793955787
18919,9.38432959721953
18920,10.806641057897558
18921,13.964541436491498
18922,19.82108062185041
18923,21.97426680002354
18924,22.207078067737392
18925,19.64042925564623
18926,21.000403273056623
18927,20.735151090989206
18928,20.20591891957413
18929,20.676630225880803
18930,21.18550731377991
18931,22.479963406123286
18932,21.602468477677228
18933,20.16361851164249
18934,20.23676959302799
18935,19.75842513040284
18936,17.89831499200136
18937,14.283791755416502
18938,12.088487339813833
18939,9.988285216338838
18940,8.407169851232947
18941,7.525803792752065
18942,8.092282663251693
18943,9.384910473308082
18944,10.80730997295676
18945,13.965405820902129
18946,19.82230751735352
18947,21.97562697455869
18948,22.20845265294484
18949,19.64164496909761
18950,21.001703166883335
18951,20.73643456609912
18952,20.207169635997293
18953,20.677910078635932
18954,21.186818665272305
18955,22.481354882528592
18956,21.603805638447465
18957,20.164866609733117
18958,20.2380222190621
18959,19.759648147623924
18960,17.8994228025909
18961,14.284675846224633
18962,12.089235552944096
18963,9.988903438117758
18964,8.407690210372532
18965,7.526269600016053
18966,8.092783532547596
18967,9.385491349396634
18968,10.807978888015963
18969,13.966270205312759
18970,19.823534412856624
18971,21.97698714909384
18972,22.20982723815229
18973,19.642860682548985
18974,21.00300306071005
18975,20.73771804120904
18976,20.208420352420454
18977,20.679189931391065
18978,21.1881300167647
18979,22.4827463589339
18980,21.605142799217703
18981,20.166114707823745
18982,20.239274845096205
18983,19.760871164845003
18984,17.900530613180443
18985,14.285559937032764
18986,12.089983766074358
18987,9.989521659896678
18988,8.408210569512118
18989,7.526735407280041
18990,8.0932844018435
18991,9.386072225485186
18992,10.808647803075166
18993,13.96713458972339
18994,19.82476130835973
18995,21.97834732362899
18996,22.211201823359737
18997,19.644076396000365
18998,21.004302954536765
18999,20.739001516318954
19000,20.209671068843615
19001,20.680469784146194
19002,21.189441368257093
19003,22.484137835339205
19004,21.60647995998794
19005,20.16736280591437
19006,20.240527471130314
19007,19.762094182066086
19008,17.901638423769985
19009,14.286444027840894
19010,12.09073197920462
19011,9.990139881675598
19012,8.408730928651703
19013,7.527201214544029
19014,8.093785271139405
19015,9.386653101573739
19016,10.809316718134369
19017,13.96799897413402
19018,19.82598820386284
19019,21.979707498164142
19020,22.212576408567188
19021,19.64529210945174
19022,21.005602848363477
19023,20.74028499142887
19024,20.210921785266777
19025,20.681749636901323
19026,21.190752719749483
19027,22.48552931174451
19028,21.607817120758178
19029,20.168610904004996
19030,20.241780097164423
19031,19.76331719928717
19032,17.902746234359526
19033,14.287328118649025
19034,12.091480192334883
19035,9.990758103454517
19036,8.409251287791289
19037,7.527667021808017
19038,8.094286140435308
19039,9.38723397766229
19040,10.80998563319357
19041,13.96886335854465
19042,19.827215099365944
19043,21.981067672699297
19044,22.213950993774635
19045,19.64650782290312
19046,21.006902742190192
19047,20.741568466538784
19048,20.21217250168994
19049,20.683029489656455
19050,21.192064071241877
19051,22.486920788149817
19052,21.609154281528415
19053,20.169859002095624
19054,20.24303272319853
19055,19.764540216508248
19056,17.903854044949068
19057,14.288212209457154
19058,12.092228405465143
19059,9.991376325233436
19060,8.409771646930873
19061,7.528132829072004
19062,8.094787009731212
19063,9.387814853750841
19064,10.81065454825277
19065,13.969727742955278
19066,19.82844199486905
19067,21.982427847234444
19068,22.215325578982082
19069,19.647723536354494
19070,21.0082026360169
19071,20.742851941648695
19072,20.2134232181131
19073,20.68430934241158
19074,21.193375422734267
19075,22.48831226455512
19076,21.610491442298652
19077,20.171107100186248
19078,20.244285349232637
19079,19.765763233729327
19080,17.90496185553861
19081,14.289096300265284
19082,12.092976618595404
19083,9.991994547012355
19084,8.410292006070458
19085,7.5285986363359925
19086,8.095287879027115
19087,9.388395729839393
19088,10.811323463311973
19089,13.97059212736591
19090,19.829668890372155
19091,21.983788021769595
19092,22.21670016418953
19093,19.648939249805874
19094,21.009502529843616
19095,20.74413541675861
19096,20.21467393453626
19097,20.68558919516671
19098,21.19468677422666
19099,22.489703740960426
19100,21.61182860306889
19101,20.172355198276875
19102,20.245537975266746
19103,19.766986250950406
19104,17.90606966612815
19105,14.289980391073415
19106,12.093724831725668
19107,9.992612768791275
19108,8.410812365210045
19109,7.529064443599981
19110,8.095788748323018
19111,9.388976605927947
19112,10.811992378371176
19113,13.97145651177654
19114,19.83089578587526
19115,21.985148196304745
19116,22.218074749396976
19117,19.65015496325725
19118,21.01080242367033
19119,20.74541889186853
19120,20.215924650959423
19121,20.686869047921842
19122,21.195998125719054
19123,22.491095217365732
19124,21.613165763839127
19125,20.173603296367503
19126,20.24679060130085
19127,19.76820926817149
19128,17.907177476717692
19129,14.290864481881545
19130,12.09447304485593
19131,9.993230990570195
19132,8.41133272434963
19133,7.529530250863969
19134,8.096289617618924
19135,9.3895574820165
19136,10.812661293430379
19137,13.97232089618717
19138,19.83212268137837
19139,21.986508370839896
19140,22.219449334604427
19141,19.65137067670863
19142,21.012102317497042
19143,20.746702366978443
19144,20.217175367382584
19145,20.68814890067697
19146,21.197309477211448
19147,22.49248669377104
19148,21.614502924609365
19149,20.174851394458127
19150,20.24804322733496
19151,19.76943228539257
19152,17.908285287307233
19153,14.291748572689677
19154,12.095221257986191
19155,9.993849212349115
19156,8.411853083489216
19157,7.529996058127956
19158,8.096790486914827
19159,9.390138358105052
19160,10.813330208489582
19161,13.9731852805978
19162,19.833349576881474
19163,21.987868545375047
19164,22.220823919811874
19165,19.652586390160007
19166,21.013402211323758
19167,20.747985842088358
19168,20.218426083805745
19169,20.6894287534321
19170,21.19862082870384
19171,22.493878170176345
19172,21.615840085379602
19173,20.176099492548754
19174,20.24929585336907
19175,19.77065530261365
19176,17.909393097896775
19177,14.292632663497807
19178,12.095969471116454
19179,9.994467434128033
19180,8.412373442628802
19181,7.530461865391945
19182,8.097291356210732
19183,9.390719234193604
19184,10.813999123548784
19185,13.974049665008431
19186,19.83457647238458
19187,21.989228719910198
19188,22.222198505019325
19189,19.653802103611387
19190,21.01470210515047
19191,20.749269317198273
19192,20.219676800228907
19193,20.690708606187233
19194,21.199932180196235
19195,22.49526964658165
19196,21.61717724614984
19197,20.177347590639382
19198,20.25054847940318
19199,19.771878319834734
19200,17.910500908486316
19201,14.293516754305937
19202,12.096717684246716
19203,9.995085655906953
19204,8.412893801768387
19205,7.530927672655933
19206,8.097792225506636
19207,9.391300110282156
19208,10.814668038607985
19209,13.974914049419061
19210,19.83580336788769
19211,21.99058889444535
19212,22.223573090226772
19213,19.655017817062763
19214,21.016001998977185
19215,20.750552792308188
19216,20.22092751665207
19217,20.69198845894236
19218,21.201243531688625
19219,22.496661122986957
19220,21.61851440692008
19221,20.17859568873001
19222,20.251801105437288
19223,19.773101337055813
19224,17.911608719075858
19225,14.294400845114069
19226,12.097465897376978
19227,9.995703877685873
19228,8.413414160907973
19229,7.531393479919921
19230,8.09829309480254
19231,9.391880986370708
19232,10.815336953667188
19233,13.975778433829692
19234,19.837030263390794
19235,21.9919490689805
19236,22.224947675434223
19237,19.656233530514143
19238,21.017301892803896
19239,20.751836267418103
19240,20.22217823307523
19241,20.69326831169749
19242,21.20255488318102
19243,22.49805259939226
19244,21.61985156769032
19245,20.179843786820637
19246,20.253053731471393
19247,19.774324354276896
19248,17.9127165296654
19249,14.295284935922199
19250,12.098214110507241
19251,9.996322099464793
19252,8.413934520047558
19253,7.531859287183909
19254,8.098793964098444
19255,9.39246186245926
19256,10.816005868726391
19257,13.976642818240322
19258,19.8382571588939
19259,21.99330924351565
19260,22.22632226064167
19261,19.657449243965523
19262,21.01860178663061
19263,20.753119742528018
19264,20.223428949498395
19265,20.694548164452623
19266,21.203866234673413
19267,22.499444075797566
19268,21.621188728460556
19269,20.18109188491126
19270,20.254306357505502
19271,19.775547371497975
19272,17.91382434025494
19273,14.296169026730329
19274,12.098962323637503
19275,9.996940321243713
19276,8.414454879187144
19277,7.532325094447898
19278,8.099294833394348
19279,9.393042738547813
19280,10.816674783785594
19281,13.977507202650953
19282,19.83948405439701
19283,21.9946694180508
19284,22.22769684584912
19285,19.6586649574169
19286,21.019901680457327
19287,20.754403217637932
19288,20.224679665921556
19289,20.695828017207752
19290,21.205177586165807
19291,22.500835552202872
19292,21.622525889230793
19293,20.18233998300189
19294,20.25555898353961
19295,19.776770388719058
19296,17.91493215084448
19297,14.297053117538459
19298,12.099710536767763
19299,9.997558543022631
19300,8.414975238326727
19301,7.532790901711885
19302,8.099795702690251
19303,9.393623614636363
19304,10.817343698844795
19305,13.97837158706158
19306,19.84071094990011
19307,21.99602959258595
19308,22.229071431056564
19309,19.659880670868276
19310,21.021201574284035
19311,20.755686692747847
19312,20.225930382344714
19313,20.697107869962878
19314,21.206488937658197
19315,22.502227028608175
19316,21.623863050001027
19317,20.183588081092513
19318,20.256811609573717
19319,19.777993405940133
19320,17.91603996143402
19321,14.297937208346589
19322,12.100458749898024
19323,9.998176764801551
19324,8.415495597466313
19325,7.533256708975872
19326,8.100296571986155
19327,9.394204490724915
19328,10.818012613903997
19329,13.979235971472212
19330,19.84193784540322
19331,21.9973897671211
19332,22.230446016264015
19333,19.661096384319652
19334,21.02250146811075
19335,20.756970167857762
19336,20.227181098767876
19337,20.69838772271801
19338,21.20780028915059
19339,22.50361850501348
19340,21.62520021077127
19341,20.18483617918314
19342,20.258064235607826
19343,19.779216423161216
19344,17.91714777202356
19345,14.298821299154719
19346,12.101206963028288
19347,9.99879498658047
19348,8.4160159566059
19349,7.533722516239861
19350,8.10079744128206
19351,9.394785366813467
19352,10.8186815289632
19353,13.980100355882842
19354,19.843164740906325
19355,21.99874994165625
19356,22.231820601471462
19357,19.662312097771032
19358,21.023801361937462
19359,20.758253642967677
19360,20.228431815191037
19361,20.69966757547314
19362,21.209111640642984
19363,22.505009981418787
19364,21.626537371541506
19365,20.186084277273768
19366,20.259316861641935
19367,19.780439440382295
19368,17.918255582613103
19369,14.29970538996285
19370,12.10195517615855
19371,9.99941320835939
19372,8.416536315745486
19373,7.534188323503849
19374,8.101298310577963
19375,9.39536624290202
19376,10.819350444022401
19377,13.980964740293473
19378,19.84439163640943
19379,22.0001101161914
19380,22.23319518667891
19381,19.66352781122241
19382,21.025101255764177
19383,20.759537118077592
19384,20.2296825316142
19385,20.700947428228268
19386,21.210422992135378
19387,22.506401457824094
19388,21.627874532311743
19389,20.187332375364395
19390,20.260569487676044
19391,19.781662457603378
19392,17.919363393202644
19393,14.30058948077098
19394,12.102703389288811
19395,10.00003143013831
19396,8.417056674885071
19397,7.534654130767837
19398,8.101799179873867
19399,9.395947118990572
19400,10.820019359081604
19401,13.981829124704102
19402,19.84561853191254
19403,22.00147029072655
19404,22.23456977188636
19405,19.66474352467379
19406,21.026401149590892
19407,20.760820593187507
19408,20.23093324803736
19409,20.7022272809834
19410,21.211734343627768
19411,22.5077929342294
19412,21.62921169308198
19413,20.18858047345502
19414,20.26182211371015
19415,19.78288547482446
19416,17.920471203792186
19417,14.301473571579113
19418,12.103451602419074
19419,10.00064965191723
19420,8.417577034024657
19421,7.5351199380318254
19422,8.102300049169772
19423,9.396527995079124
19424,10.820688274140807
19425,13.982693509114734
19426,19.846845427415644
19427,22.002830465261702
19428,22.235944357093807
19429,19.665959238125165
19430,21.027701043417604
19431,20.762104068297422
19432,20.23218396446052
19433,20.70350713373853
19434,21.21304569512016
19435,22.509184410634706
19436,21.63054885385222
19437,20.189828571545647
19438,20.26307473974426
19439,19.78410849204554
19440,17.921579014381727
19441,14.302357662387243
19442,12.104199815549336
19443,10.00126787369615
19444,8.418097393164242
19445,7.535585745295814
19446,8.102800918465675
19447,9.397108871167676
19448,10.82135718920001
19449,13.983557893525365
19450,19.84807232291875
19451,22.004190639796853
19452,22.237318942301258
19453,19.667174951576545
19454,21.02900093724432
19455,20.76338754340734
19456,20.233434680883686
19457,20.70478698649366
19458,21.214357046612555
19459,22.510575887040012
19460,21.631886014622456
19461,20.191076669636274
19462,20.264327365778367
19463,19.785331509266623
19464,17.92268682497127
19465,14.303241753195373
19466,12.104948028679598
19467,10.00188609547507
19468,8.418617752303827
19469,7.536051552559802
19470,8.103301787761579
19471,9.397689747256228
19472,10.822026104259212
19473,13.984422277935995
19474,19.84929921842186
19475,22.005550814332004
19476,22.238693527508705
19477,19.66839066502792
19478,21.03030083107103
19479,20.764671018517255
19480,20.234685397306848
19481,20.70606683924879
19482,21.21566839810495
19483,22.51196736344532
19484,21.633223175392697
19485,20.1923247677269
19486,20.265579991812476
19487,19.786554526487702
19488,17.92379463556081
19489,14.304125844003504
19490,12.105696241809861
19491,10.002504317253988
19492,8.419138111443413
19493,7.53651735982379
19494,8.103802657057484
19495,9.39827062334478
19496,10.822695019318415
19497,13.985286662346626
19498,19.850526113924964
19499,22.006910988867155
19500,22.240068112716155
19501,19.6696063784793
19502,21.031600724897746
19503,20.76595449362717
19504,20.23593611373001
19505,20.70734669200392
19506,21.216979749597343
19507,22.513358839850625
19508,21.634560336162934
19509,20.19357286581753
19510,20.266832617846585
19511,19.787777543708785
19512,17.924902446150348
19513,14.305009934811633
19514,12.106444454940121
19515,10.003122539032908
19516,8.419658470582997
19517,7.536983167087777
19518,8.104303526353386
19519,9.398851499433333
19520,10.823363934377616
19521,13.986151046757254
19522,19.85175300942807
19523,22.008271163402302
19524,22.2414426979236
19525,19.670822091930678
19526,21.032900618724458
19527,20.76723796873708
19528,20.237186830153167
19529,20.708626544759046
19530,21.218291101089733
19531,22.514750316255927
19532,21.63589749693317
19533,20.194820963908153
19534,20.26808524388069
19535,19.78900056092986
19536,17.92601025673989
19537,14.305894025619763
19538,12.107192668070383
19539,10.003740760811828
19540,8.420178829722582
19541,7.537448974351765
19542,8.10480439564929
19543,9.399432375521885
19544,10.824032849436817
19545,13.987015431167885
19546,19.852979904931175
19547,22.009631337937453
19548,22.24281728313105
19549,19.672037805382054
19550,21.03420051255117
19551,20.768521443846996
19552,20.23843754657633
19553,20.709906397514178
19554,21.219602452582127
19555,22.516141792661234
19556,21.637234657703406
19557,20.196069061998777
19558,20.269337869914796
19559,19.790223578150943
19560,17.92711806732943
19561,14.306778116427894
19562,12.107940881200646
19563,10.004358982590746
19564,8.420699188862168
19565,7.537914781615753
19566,8.105305264945194
19567,9.400013251610437
19568,10.82470176449602
19569,13.987879815578514
19570,19.85420680043428
19571,22.010991512472604
19572,22.244191868338497
19573,19.673253518833434
19574,21.035500406377885
19575,20.76980491895691
19576,20.23968826299949
19577,20.711186250269307
19578,21.22091380407452
19579,22.51753326906654
19580,21.638571818473643
19581,20.197317160089405
19582,20.270590495948905
19583,19.791446595372022
19584,17.928225877918972
19585,14.307662207236024
19586,12.108689094330908
19587,10.004977204369666
19588,8.421219548001753
19589,7.5383805888797415
19590,8.1058061342411
19591,9.400594127698989
19592,10.825370679555222
19593,13.988744199989146
19594,19.85543369593739
19595,22.012351687007754
19596,22.245566453545948
19597,19.67446923228481
19598,21.036800300204597
19599,20.77108839406683
19600,20.24093897942265
19601,20.712466103024436
19602,21.22222515556691
19603,22.518924745471846
19604,21.639908979243884
19605,20.198565258180032
19606,20.271843121983014
19607,19.792669612593105
19608,17.929333688508514
19609,14.308546298044154
19610,12.10943730746117
19611,10.005595426148586
19612,8.42173990714134
19613,7.53884639614373
19614,8.106307003537003
19615,9.401175003787541
19616,10.826039594614425
19617,13.989608584399775
19618,19.856660591440495
19619,22.01371186154291
19620,22.246941038753395
19621,19.67568494573619
19622,21.038100194031312
19623,20.772371869176744
19624,20.242189695845813
19625,20.71374595577957
19626,21.223536507059304
19627,22.520316221877152
19628,21.641246140014122
19629,20.19981335627066
19630,20.273095748017123
19631,19.793892629814188
19632,17.930441499098055
19633,14.309430388852286
19634,12.110185520591433
19635,10.006213647927506
19636,8.422260266280926
19637,7.539312203407718
19638,8.106807872832906
19639,9.401755879876093
19640,10.826708509673628
19641,13.990472968810407
19642,19.8578874869436
19643,22.01507203607806
19644,22.248315623960842
19645,19.676900659187567
19646,21.039400087858024
19647,20.77365534428666
19648,20.243440412268978
19649,20.715025808534698
19650,21.224847858551698
19651,22.52170769828246
19652,21.64258330078436
19653,20.201061454361284
19654,20.274348374051232
19655,19.795115647035267
19656,17.931549309687597
19657,14.310314479660416
19658,12.110933733721694
19659,10.006831869706426
19660,8.422780625420511
19661,7.539778010671705
19662,8.107308742128811
19663,9.402336755964646
19664,10.82737742473283
19665,13.991337353221036
19666,19.85911438244671
19667,22.01643221061321
19668,22.249690209168293
19669,19.678116372638947
19670,21.04069998168474
19671,20.774938819396574
19672,20.24469112869214
19673,20.716305661289827
19674,21.22615921004409
19675,22.523099174687765
19676,21.643920461554597
19677,20.20230955245191
19678,20.27560100008534
19679,19.79633866425635
19680,17.93265712027714
19681,14.311198570468546
19682,12.111681946851956
19683,10.007450091485346
19684,8.423300984560097
19685,7.540243817935694
19686,8.107809611424715
19687,9.402917632053198
19688,10.828046339792031
19689,13.992201737631667
19690,19.860341277949814
19691,22.01779238514836
19692,22.25106479437574
19693,19.679332086090323
19694,21.041999875511454
19695,20.77622229450649
19696,20.2459418451153
19697,20.71758551404496
19698,21.227470561536485
19699,22.52449065109307
19700,21.645257622324834
19701,20.20355765054254
19702,20.276853626119447
19703,19.79756168147743
19704,17.933764930866683
19705,14.312082661276678
19706,12.11243015998222
19707,10.008068313264266
19708,8.423821343699682
19709,7.540709625199682
19710,8.108310480720618
19711,9.40349850814175
19712,10.828715254851234
19713,13.993066122042297
19714,19.86156817345292
19715,22.019152559683512
19716,22.25243937958319
19717,19.680547799541703
19718,21.043299769338166
19719,20.777505769616404
19720,20.247192561538462
19721,20.718865366800088
19722,21.22878191302888
19723,22.525882127498377
19724,21.646594783095072
19725,20.204805748633166
19726,20.278106252153556
19727,19.798784698698512
19728,17.93487274145622
19729,14.312966752084806
19730,12.11317837311248
19731,10.008686535043184
19732,8.424341702839266
19733,7.541175432463669
19734,8.108811350016522
19735,9.4040793842303
19736,10.829384169910435
19737,13.993930506452926
19738,19.862795068956025
19739,22.02051273421866
19740,22.253813964790634
19741,19.68176351299308
19742,21.044599663164878
19743,20.77878924472632
19744,20.24844327796162
19745,20.720145219555214
19746,21.23009326452127
19747,22.52727360390368
19748,21.64793194386531
19749,20.20605384672379
19750,20.27935887818766
19751,19.800007715919588
19752,17.935980552045763
19753,14.313850842892936
19754,12.11392658624274
19755,10.009304756822104
19756,8.424862061978851
19757,7.5416412397276575
19758,8.109312219312427
19759,9.404660260318852
19760,10.830053084969638
19761,13.994794890863556
19762,19.86402196445913
19763,22.02187290875381
19764,22.255188549998085
19765,19.682979226444456
19766,21.045899556991593
19767,20.780072719836234
19768,20.24969399438478
19769,20.721425072310346
19770,21.23140461601366
19771,22.528665080308986
19772,21.649269104635547
19773,20.207301944814418
19774,20.28061150422177
19775,19.80123073314067
19776,17.937088362635304
19777,14.314734933701068
19778,12.114674799373004
19779,10.009922978601024
19780,8.425382421118437
19781,7.542107046991646
19782,8.10981308860833
19783,9.405241136407405
19784,10.83072200002884
19785,13.995659275274187
19786,19.86524885996224
19787,22.02323308328896
19788,22.256563135205532
19789,19.684194939895836
19790,21.047199450818304
19791,20.78135619494615
19792,20.250944710807943
19793,20.722704925065475
19794,21.232715967506053
19795,22.530056556714293
19796,21.650606265405784
19797,20.208550042905042
19798,20.28186413025588
19799,19.80245375036175
19800,17.938196173224846
19801,14.315619024509198
19802,12.115423012503266
19803,10.010541200379944
19804,8.425902780258022
19805,7.542572854255634
19806,8.110313957904234
19807,9.405822012495957
19808,10.831390915088043
19809,13.996523659684817
19810,19.866475755465345
19811,22.02459325782411
19812,22.257937720412983
19813,19.685410653347212
19814,21.04849934464502
19815,20.782639670056064
19816,20.252195427231104
19817,20.723984777820604
19818,21.234027318998447
19819,22.5314480331196
19820,21.65194342617602
19821,20.20979814099567
19822,20.28311675628999
19823,19.803676767582832
19824,17.939303983814387
19825,14.31650311531733
19826,12.116171225633527
19827,10.011159422158864
19828,8.426423139397608
19829,7.543038661519621
19830,8.110814827200139
19831,9.406402888584509
19832,10.832059830147246
19833,13.997388044095448
19834,19.86770265096845
19835,22.025953432359263
19836,22.25931230562043
19837,19.686626366798592
19838,21.04979923847173
19839,20.78392314516598
19840,20.25344614365427
19841,20.725264630575737
19842,21.23533867049084
19843,22.532839509524905
19844,21.65328058694626
19845,20.211046239086297
19846,20.284369382324094
19847,19.804899784803915
19848,17.94041179440393
19849,14.31738720612546
19850,12.116919438763789
19851,10.011777643937782
19852,8.426943498537195
19853,7.54350446878361
19854,8.111315696496042
19855,9.406983764673061
19856,10.832728745206449
19857,13.998252428506078
19858,19.86892954647156
19859,22.027313606894413
19860,22.26068689082788
19861,19.68784208024997
19862,21.051099132298447
19863,20.785206620275893
19864,20.25469686007743
19865,20.726544483330866
19866,21.236650021983234
19867,22.534230985930208
19868,21.6546177477165
19869,20.212294337176925
19870,20.285622008358203
19871,19.806122802024994
19872,17.94151960499347
19873,14.31827129693359
19874,12.117667651894052
19875,10.012395865716702
19876,8.42746385767678
19877,7.543970276047598
19878,8.111816565791946
19879,9.407564640761613
19880,10.83339766026565
19881,13.999116812916709
19882,19.870156441974665
19883,22.028673781429564
19884,22.262061476035328
19885,19.68905779370135
19886,21.05239902612516
19887,20.78649009538581
19888,20.255947576500592
19889,20.727824336085995
19890,21.237961373475628
19891,22.535622462335514
19892,21.655954908486738
19893,20.213542435267552
19894,20.286874634392312
19895,19.807345819246077
19896,17.94262741558301
19897,14.319155387741722
19898,12.118415865024314
19899,10.013014087495621
19900,8.427984216816366
19901,7.544436083311586
19902,8.112317435087851
19903,9.408145516850166
19904,10.834066575324853
19905,13.99998119732734
19906,19.87138333747777
19907,22.030033955964715
19908,22.26343606124278
19909,19.690273507152725
19910,21.053698919951874
19911,20.787773570495723
19912,20.257198292923754
19913,20.729104188841127
19914,21.23927272496802
19915,22.53701393874082
19916,21.657292069256975
19917,20.214790533358176
19918,20.28812726042642
19919,19.808568836467156
19920,17.943735226172553
19921,14.320039478549852
19922,12.119164078154576
19923,10.013632309274541
19924,8.428504575955952
19925,7.5449018905755745
19926,8.112818304383755
19927,9.408726392938718
19928,10.834735490384055
19929,14.00084558173797
19930,19.87261023298088
19931,22.031394130499866
19932,22.264810646450226
19933,19.691489220604105
19934,21.05499881377859
19935,20.78905704560564
19936,20.258449009346915
19937,20.730384041596256
19938,21.24058407646041
19939,22.538405415146126
19940,21.658629230027213
19941,20.216038631448804
19942,20.28937988646053
19943,19.80979185368824
19944,17.944843036762094
19945,14.320923569357982
19946,12.11991229128484
19947,10.014250531053461
19948,8.429024935095537
19949,7.545367697839563
19950,8.113319173679658
19951,9.40930726902727
19952,10.835404405443258
19953,14.001709966148601
19954,19.873837128483984
19955,22.032754305035017
19956,22.266185231657673
19957,19.69270493405548
19958,21.0562987076053
19959,20.790340520715556
19960,20.259699725770076
19961,20.731663894351385
19962,21.241895427952805
19963,22.539796891551433
19964,21.65996639079745
19965,20.21728672953943
19966,20.290632512494636
19967,19.811014870909318
19968,17.945950847351632
19969,14.321807660166112
19970,12.120660504415099
19971,10.01486875283238
19972,8.42954529423512
19973,7.545833505103549
19974,8.113820042975561
19975,9.409888145115822
19976,10.836073320502459
19977,14.002574350559229
19978,19.875064023987086
19979,22.034114479570164
19980,22.26755981686512
19981,19.693920647506857
19982,21.057598601432012
19983,20.791623995825468
19984,20.260950442193234
19985,20.732943747106514
19986,21.243206779445195
19987,22.541188367956735
19988,21.661303551567688
19989,20.218534827630055
19990,20.29188513852874
19991,19.812237888130397
19992,17.947058657941174
19993,14.322691750974242
19994,12.12140871754536
19995,10.0154869746113
19996,8.430065653374706
19997,7.5462993123675375
19998,8.114320912271467
19999,9.410469021204374
20000,10.836742235561662
20001,14.00343873496986
20002,19.876290919490195
20003,22.035474654105315
20004,22.268934402072567
20005,19.695136360958234
20006,21.058898495258724
20007,20.792907470935383
20008,20.262201158616396
20009,20.734223599861643
20010,21.24451813093759
20011,22.54257984436204
20012,21.662640712337925
20013,20.219782925720683
20014,20.29313776456285
20015,19.81346090535148
20016,17.948166468530715
20017,14.323575841782372
20018,12.122156930675624
20019,10.01610519639022
20020,8.430586012514292
20021,7.546765119631526
20022,8.11482178156737
20023,9.411049897292926
20024,10.837411150620865
20025,14.00430311938049
20026,19.8775178149933
20027,22.036834828640465
20028,22.270308987280018
20029,19.696352074409614
20030,21.06019838908544
20031,20.794190946045298
20032,20.26345187503956
20033,20.735503452616772
20034,21.245829482429983
20035,22.543971320767348
20036,21.663977873108163
20037,20.22103102381131
20038,20.29439039059696
20039,19.81468392257256
20040,17.949274279120257
20041,14.324459932590504
20042,12.122905143805886
20043,10.01672341816914
20044,8.431106371653877
20045,7.547230926895514
20046,8.115322650863273
20047,9.411630773381479
20048,10.838080065680066
20049,14.005167503791121
20050,19.87874471049641
20051,22.038195003175616
20052,22.271683572487465
20053,19.69756778786099
20054,21.061498282912154
20055,20.795474421155212
20056,20.264702591462722
20057,20.736783305371905
20058,21.247140833922376
20059,22.545362797172654
20060,21.6653150338784
20061,20.222279121901934
20062,20.295643016631068
20063,19.815906939793642
20064,17.950382089709798
20065,14.325344023398634
20066,12.123653356936147
20067,10.017341639948059
20068,8.431626730793463
20069,7.547696734159502
20070,8.115823520159179
20071,9.41221164947003
20072,10.838748980739268
20073,14.00603188820175
20074,19.879971605999515
20075,22.039555177710767
20076,22.273058157694916
20077,19.69878350131237
20078,21.062798176738866
20079,20.79675789626513
20080,20.265953307885884
20081,20.738063158127034
20082,21.24845218541477
20083,22.54675427357796
20084,21.666652194648638
20085,20.22352721999256
20086,20.296895642665177
20087,19.81712995701472
20088,17.95148990029934
20089,14.326228114206765
20090,12.12440157006641
20091,10.017959861726979
20092,8.43214708993305
20093,7.5481625414234905
20094,8.116324389455082
20095,9.412792525558583
20096,10.839417895798471
20097,14.006896272612382
20098,19.88119850150262
20099,22.040915352245918
20100,22.274432742902363
20101,19.69999921476375
20102,21.06409807056558
20103,20.798041371375046
20104,20.267204024309045
20105,20.739343010882163
20106,21.249763536907164
20107,22.548145749983266
20108,21.667989355418875
20109,20.22477531808319
20110,20.298148268699286
20111,19.818352974235804
20112,17.95259771088888
20113,14.327112205014895
20114,12.125149783196672
20115,10.018578083505899
20116,8.432667449072635
20117,7.548628348687479
20118,8.116825258750985
20119,9.413373401647135
20120,10.840086810857674
20121,14.007760657023011
20122,19.88242539700573
20123,22.04227552678107
20124,22.275807328109813
20125,19.701214928215126
20126,21.065397964392293
20127,20.79932484648496
20128,20.268454740732206
20129,20.740622863637295
20130,21.251074888399554
20131,22.549537226388573
20132,21.669326516189113
20133,20.226023416173817
20134,20.29940089473339
20135,19.819575991456883
20136,17.953705521478422
20137,14.327996295823025
20138,12.125897996326934
20139,10.019196305284819
20140,8.433187808212221
20141,7.549094155951467
20142,8.11732612804689
20143,9.413954277735687
20144,10.840755725916877
20145,14.008625041433643
20146,19.883652292508835
20147,22.04363570131622
20148,22.27718191331726
20149,19.702430641666506
20150,21.06669785821901
20151,20.800608321594876
20152,20.269705457155368
20153,20.741902716392424
20154,21.252386239891948
20155,22.55092870279388
20156,21.670663676959354
20157,20.227271514264444
20158,20.3006535207675
20159,19.820799008677966
20160,17.954813332067964
20161,14.328880386631157
20162,12.126646209457197
20163,10.019814527063737
20164,8.433708167351806
20165,7.549559963215454
20166,8.117826997342794
20167,9.41453515382424
20168,10.84142464097608
20169,14.009489425844272
20170,19.88487918801194
20171,22.04499587585137
20172,22.27855649852471
20173,19.703646355117883
20174,21.06799775204572
20175,20.80189179670479
20176,20.27095617357853
20177,20.743182569147553
20178,21.25369759138434
20179,22.552320179199185
20180,21.67200083772959
20181,20.22851961235507
20182,20.30190614680161
20183,19.822022025899045
20184,17.955921142657505
20185,14.329764477439285
20186,12.127394422587457
20187,10.020432748842657
20188,8.43422852649139
20189,7.550025770479442
20190,8.118327866638698
20191,9.41511602991279
20192,10.84209355603528
20193,14.010353810254902
20194,19.886106083515045
20195,22.046356050386517
20196,22.279931083732155
20197,19.70486206856926
20198,21.06929764587243
20199,20.803175271814702
20200,20.272206890001687
20201,20.744462421902682
20202,21.25500894287673
20203,22.553711655604488
20204,21.673337998499825
20205,20.229767710445692
20206,20.303158772835715
20207,19.823245043120124
20208,17.957028953247047
20209,14.330648568247415
20210,12.128142635717719
20211,10.021050970621577
20212,8.434748885630976
20213,7.55049157774343
20214,8.118828735934601
20215,9.415696906001342
20216,10.842762471094481
20217,14.011218194665531
20218,19.88733297901815
20219,22.047716224921672
20220,22.281305668939606
20221,19.706077782020635
20222,21.070597539699147
20223,20.80445874692462
20224,20.273457606424852
20225,20.74574227465781
20226,21.256320294369125
20227,22.555103132009794
20228,21.674675159270063
20229,20.23101580853632
20230,20.304411398869824
20231,19.824468060341207
20232,17.95813676383659
20233,14.331532659055547
20234,12.128890848847982
20235,10.021669192400495
20236,8.435269244770561
20237,7.550957385007418
20238,8.119329605230506
20239,9.416277782089894
20240,10.843431386153684
20241,14.012082579076163
20242,19.888559874521256
20243,22.049076399456823
20244,22.282680254147053
20245,19.707293495472015
20246,21.07189743352586
20247,20.805742222034535
20248,20.274708322848014
20249,20.747022127412944
20250,21.25763164586152
20251,22.5564946084151
20252,21.6760123200403
20253,20.232263906626947
20254,20.305664024903933
20255,19.825691077562286
20256,17.95924457442613
20257,14.332416749863677
20258,12.129639061978244
20259,10.022287414179415
20260,8.435789603910147
20261,7.551423192271407
20262,8.11983047452641
20263,9.416858658178446
20264,10.844100301212887
20265,14.012946963486792
20266,19.889786770024365
20267,22.050436573991973
20268,22.2840548393545
20269,19.70850920892339
20270,21.073197327352574
20271,20.80702569714445
20272,20.275959039271175
20273,20.748301980168073
20274,21.258942997353913
20275,22.557886084820407
20276,21.67734948081054
20277,20.233512004717575
20278,20.30691665093804
20279,19.82691409478337
20280,17.96035238501567
20281,14.333300840671807
20282,12.130387275108506
20283,10.022905635958335
20284,8.436309963049732
20285,7.551888999535395
20286,8.120331343822313
20287,9.417439534266999
20288,10.84476921627209
20289,14.013811347897423
20290,19.89101366552747
20291,22.051796748527124
20292,22.28542942456195
20293,19.70972492237477
20294,21.074497221179286
20295,20.808309172254365
20296,20.277209755694336
20297,20.7495818329232
20298,21.260254348846306
20299,22.559277561225713
20300,21.67868664158078
20301,20.234760102808202
20302,20.308169276972148
20303,19.82813711200445
20304,17.961460195605213
20305,14.334184931479939
20306,12.131135488238767
20307,10.023523857737255
20308,8.436830322189317
20309,7.552354806799383
20310,8.120832213118218
20311,9.41802041035555
20312,10.845438131331292
20313,14.014675732308053
20314,19.892240561030576
20315,22.053156923062275
20316,22.286804009769398
20317,19.710940635826148
20318,21.075797115006
20319,20.80959264736428
20320,20.278460472117498
20321,20.75086168567833
20322,21.261565700338696
20323,22.56066903763102
20324,21.680023802351016
20325,20.236008200898826
20326,20.309421903006257
20327,19.82936012922553
20328,17.962568006194754
20329,14.335069022288069
20330,12.13188370136903
20331,10.024142079516174
20332,8.437350681328905
20333,7.5528206140633705
20334,8.121333082414122
20335,9.418601286444103
20336,10.846107046390495
20337,14.015540116718684
20338,19.893467456533685
20339,22.054517097597426
20340,22.28817859497685
20341,19.712156349277528
20342,21.077097008832716
20343,20.810876122474195
20344,20.27971118854066
20345,20.752141538433463
20346,21.26287705183109
20347,22.562060514036325
20348,21.681360963121254
20349,20.237256298989454
20350,20.310674529040366
20351,19.83058314644661
20352,17.963675816784296
20353,14.3359531130962
20354,12.132631914499292
20355,10.024760301295094
20356,8.43787104046849
20357,7.553286421327359
20358,8.121833951710025
20359,9.419182162532655
20360,10.846775961449696
20361,14.016404501129314
20362,19.89469435203679
20363,22.055877272132577
20364,22.289553180184296
20365,19.713372062728904
20366,21.078396902659428
20367,20.81215959758411
20368,20.28096190496382
20369,20.753421391188592
20370,21.264188403323484
20371,22.56345199044163
20372,21.68269812389149
20373,20.23850439708008
20374,20.311927155074475
20375,19.831806163667693
20376,17.964783627373837
20377,14.33683720390433
20378,12.133380127629554
20379,10.025378523074014
20380,8.438391399608076
20381,7.553752228591347
20382,8.12233482100593
20383,9.419763038621209
20384,10.847444876508899
20385,14.017268885539945
20386,19.8959212475399
20387,22.057237446667727
20388,22.290927765391746
20389,19.714587776180284
20390,21.079696796486143
20391,20.813443072694028
20392,20.282212621386982
20393,20.75470124394372
20394,21.265499754815878
20395,22.564843466846938
20396,21.68403528466173
20397,20.23975249517071
20398,20.31317978110858
20399,19.833029180888772
20400,17.965891437963375
20401,14.337721294712459
20402,12.134128340759816
20403,10.025996744852932
20404,8.43891175874766
20405,7.554218035855334
20406,8.122835690301834
20407,9.42034391470976
20408,10.8481137915681
20409,14.018133269950573
20410,19.897148143043
20411,22.058597621202875
20412,22.29230235059919
20413,19.71580348963166
20414,21.08099669031285
20415,20.81472654780394
20416,20.283463337810144
20417,20.75598109669885
20418,21.266811106308268
20419,22.56623494325224
20420,21.685372445431966
20421,20.241000593261333
20422,20.31443240714269
20423,19.83425219810985
20424,17.966999248552916
20425,14.33860538552059
20426,12.134876553890077
20427,10.026614966631852
20428,8.439432117887245
20429,7.554683843119323
20430,8.123336559597737
20431,9.420924790798312
20432,10.848782706627302
20433,14.018997654361204
20434,19.898375038546106
20435,22.059957795738026
20436,22.29367693580664
20437,19.717019203083037
20438,21.082296584139566
20439,20.816010022913854
20440,20.284714054233305
20441,20.75726094945398
20442,21.26812245780066
20443,22.567626419657547
20444,21.686709606202204
20445,20.242248691351957
20446,20.315685033176795
20447,19.835475215330934
20448,17.968107059142458
20449,14.33948947632872
20450,12.135624767020339
20451,10.027233188410772
20452,8.43995247702683
20453,7.555149650383311
20454,8.12383742889364
20455,9.421505666886864
20456,10.849451621686505
20457,14.019862038771835
20458,19.899601934049215
20459,22.061317970273176
20460,22.295051521014088
20461,19.718234916534417
20462,21.08359647796628
20463,20.81729349802377
20464,20.285964770656467
20465,20.75854080220911
20466,21.269433809293055
20467,22.56901789606285
20468,21.68804676697244
20469,20.243496789442585
20470,20.316937659210904
20471,19.836698232552013
20472,17.969214869732
20473,14.34037356713685
20474,12.136372980150602
20475,10.027851410189692
20476,8.440472836166416
20477,7.555615457647298
20478,8.124338298189546
20479,9.422086542975416
20480,10.850120536745708
20481,14.020726423182465
20482,19.90082882955232
20483,22.062678144808327
20484,22.29642610622154
20485,19.719450629985793
20486,21.084896371792993
20487,20.818576973133684
20488,20.287215487079628
20489,20.75982065496424
20490,21.270745160785445
20491,22.570409372468156
20492,21.68938392774268
20493,20.244744887533212
20494,20.318190285245013
20495,19.837921249773096
20496,17.97032268032154
20497,14.341257657944983
20498,12.137121193280864
20499,10.028469631968612
20500,8.440993195306001
20501,7.5560812649112865
20502,8.12483916748545
20503,9.422667419063968
20504,10.85078945180491
20505,14.021590807593096
20506,19.902055725055426
20507,22.064038319343478
20508,22.297800691428986
20509,19.720666343437173
20510,21.08619626561971
20511,20.8198604482436
20512,20.28846620350279
20513,20.76110050771937
20514,21.27205651227784
20515,22.571800848873462
20516,21.690721088512916
20517,20.24599298562384
20518,20.319442911279122
20519,19.839144266994175
20520,17.971430490911082
20521,14.342141748753113
20522,12.137869406411125
20523,10.02908785374753
20524,8.441513554445587
20525,7.556547072175275
20526,8.125340036781353
20527,9.42324829515252
20528,10.851458366864112
20529,14.022455192003726
20530,19.903282620558535
20531,22.06539849387863
20532,22.299175276636433
20533,19.72188205688855
20534,21.08749615944642
20535,20.821143923353517
20536,20.28971691992595
20537,20.7623803604745
20538,21.273367863770233
20539,22.573192325278768
20540,21.692058249283157
20541,20.247241083714467
20542,20.32069553731323
20543,19.840367284215258
20544,17.972538301500624
20545,14.343025839561243
20546,12.138617619541389
20547,10.02970607552645
20548,8.442033913585172
20549,7.557012879439263
20550,8.125840906077258
20551,9.423829171241072
20552,10.852127281923314
20553,14.023319576414357
20554,19.90450951606164
20555,22.06675866841378
20556,22.300549861843884
20557,19.72309777033993
20558,21.088796053273136
20559,20.822427398463432
20560,20.290967636349112
20561,20.76366021322963
20562,21.274679215262626
20563,22.574583801684074
20564,21.693395410053395
20565,20.24848918180509
20566,20.321948163347336
20567,19.841590301436337
20568,17.973646112090165
20569,14.343909930369374
20570,12.13936583267165
20571,10.03032429730537
20572,8.44255427272476
20573,7.557478686703251
20574,8.126341775373161
20575,9.424410047329625
20576,10.852796196982517
20577,14.024183960824987
20578,19.905736411564746
20579,22.06811884294893
20580,22.30192444705133
20581,19.724313483791306
20582,21.090095947099847
20583,20.823710873573347
20584,20.292218352772274
20585,20.76494006598476
20586,21.27599056675502
20587,22.57597527808938
20588,21.694732570823632
20589,20.24973727989572
20590,20.323200789381445
20591,19.84281331865742
20592,17.974753922679707
20593,14.344794021177504
20594,12.140114045801912
20595,10.03094251908429
20596,8.443074631864345
20597,7.5579444939672396
20598,8.126842644669066
20599,9.424990923418177
20600,10.85346511204172
20601,14.025048345235618
20602,19.906963307067855
20603,22.06947901748408
20604,22.30329903225878
20605,19.725529197242686
20606,21.091395840926562
20607,20.824994348683262
20608,20.293469069195435
20609,20.76621991873989
20610,21.277301918247414
20611,22.577366754494687
20612,21.69606973159387
20613,20.250985377986346
20614,20.324453415415555
20615,19.8440363358785
20616,17.975861733269248
20617,14.345678111985634
20618,12.140862258932176
20619,10.03156074086321
20620,8.44359499100393
20621,7.558410301231228
20622,8.12734351396497
20623,9.425571799506729
20624,10.854134027100923
20625,14.025912729646247
20626,19.90819020257096
20627,22.070839192019232
20628,22.30467361746623
20629,19.726744910694062
20630,21.092695734753278
20631,20.826277823793177
20632,20.294719785618597
20633,20.76749977149502
20634,21.278613269739807
20635,22.578758230899993
20636,21.697406892364107
20637,20.252233476076974
20638,20.325706041449664
20639,19.845259353099582
20640,17.976969543858786
20641,14.346562202793764
20642,12.141610472062435
20643,10.032178962642128
20644,8.444115350143514
20645,7.558876108495214
20646,8.127844383260873
20647,9.42615267559528
20648,10.854802942160124
20649,14.026777114056877
20650,19.909417098074066
20651,22.07219936655438
20652,22.306048202673676
20653,19.72796062414544
20654,21.093995628579986
20655,20.82756129890309
20656,20.295970502041758
20657,20.768779624250147
20658,21.279924621232198
20659,22.580149707305296
20660,21.698744053134345
20661,20.253481574167598
20662,20.32695866748377
20663,19.84648237032066
20664,17.978077354448327
20665,14.347446293601894
20666,12.142358685192697
20667,10.032797184421048
20668,8.4446357092831
20669,7.559341915759203
20670,8.128345252556777
20671,9.426733551683832
20672,10.855471857219326
20673,14.027641498467506
20674,19.91064399357717
20675,22.07355954108953
20676,22.307422787881123
20677,19.72917633759682
20678,21.0952955224067
20679,20.828844774013003
20680,20.29722121846492
20681,20.77005947700528
20682,21.281235972724588
20683,22.581541183710602
20684,21.700081213904582
20685,20.254729672258225
20686,20.328211293517878
20687,19.84770538754174
20688,17.97918516503787
20689,14.348330384410025
20690,12.14310689832296
20691,10.033415406199968
20692,8.445156068422685
20693,7.559807723023191
20694,8.12884612185268
20695,9.427314427772384
20696,10.856140772278527
20697,14.028505882878138
20698,19.911870889080276
20699,22.07491971562468
20700,22.308797373088574
20701,19.730392051048195
20702,21.096595416233416
20703,20.83012824912292
20704,20.29847193488808
20705,20.77133932976041
20706,21.28254732421698
20707,22.582932660115908
20708,21.70141837467482
20709,20.25597777034885
20710,20.329463919551984
20711,19.848928404762823
20712,17.98029297562741
20713,14.349214475218156
20714,12.143855111453222
20715,10.034033627978888
20716,8.44567642756227
20717,7.560273530287179
20718,8.129346991148585
20719,9.427895303860938
20720,10.85680968733773
20721,14.029370267288767
20722,19.913097784583385
20723,22.07627989015983
20724,22.31017195829602
20725,19.731607764499575
20726,21.097895310060128
20727,20.831411724232836
20728,20.299722651311242
20729,20.772619182515538
20730,21.283858675709375
20731,22.584324136521214
20732,21.702755535445057
20733,20.257225868439477
20734,20.330716545586093
20735,19.850151421983902
20736,17.981400786216952
20737,14.350098566026286
20738,12.144603324583484
20739,10.034651849757807
20740,8.446196786701856
20741,7.560739337551167
20742,8.129847860444489
20743,9.42847617994949
20744,10.857478602396933
20745,14.030234651699399
20746,19.91432468008649
20747,22.077640064694982
20748,22.31154654350347
20749,19.73282347795095
20750,21.099195203886843
20751,20.83269519934275
20752,20.300973367734404
20753,20.77389903527067
20754,21.28517002720177
20755,22.58571561292652
20756,21.704092696215294
20757,20.258473966530104
20758,20.3319691716202
20759,19.851374439204985
20760,17.982508596806493
20761,14.350982656834418
20762,12.145351537713747
20763,10.035270071536727
20764,8.446717145841442
20765,7.561205144815156
20766,8.130348729740392
20767,9.429057056038042
20768,10.858147517456135
20769,14.031099036110028
20770,19.915551575589596
20771,22.079000239230133
20772,22.31292112871092
20773,19.73403919140233
20774,21.100495097713555
20775,20.833978674452666
20776,20.302224084157565
20777,20.7751788880258
20778,21.286481378694162
20779,22.587107089331827
20780,21.705429856985532
20781,20.259722064620732
20782,20.33322179765431
20783,19.852597456426064
20784,17.983616407396035
20785,14.351866747642548
20786,12.146099750844009
20787,10.035888293315647
20788,8.447237504981027
20789,7.561670952079144
20790,8.130849599036297
20791,9.429637932126594
20792,10.858816432515338
20793,14.03196342052066
20794,19.916778471092705
20795,22.080360413765284
20796,22.314295713918366
20797,19.735254904853708
20798,21.10179499154027
20799,20.83526214956258
20800,20.303474800580727
20801,20.776458740780928
20802,21.287792730186556
20803,22.588498565737133
20804,21.706767017755773
20805,20.26097016271136
20806,20.33447442368842
20807,19.853820473647147
20808,17.984724217985576
20809,14.352750838450678
20810,12.14684796397427
20811,10.036506515094567
20812,8.447757864120613
20813,7.562136759343132
20814,8.1313504683322
20815,9.430218808215146
20816,10.859485347574541
20817,14.032827804931289
20818,19.91800536659581
20819,22.081720588300435
20820,22.315670299125816
20821,19.736470618305088
20822,21.103094885366982
20823,20.836545624672496
20824,20.304725517003888
20825,20.777738593536057
20826,21.28910408167895
20827,22.58989004214244
20828,21.70810417852601
20829,20.262218260801983
20830,20.33572704972253
20831,19.855043490868226
20832,17.985832028575118
20833,14.35363492925881
20834,12.147596177104532
20835,10.037124736873485
20836,8.4482782232602
20837,7.5626025666071195
20838,8.131851337628106
20839,9.430799684303699
20840,10.860154262633742
20841,14.03369218934192
20842,19.919232262098916
20843,22.083080762835586
20844,22.317044884333264
20845,19.737686331756464
20846,21.104394779193697
20847,20.83782909978241
20848,20.305976233427053
20849,20.77901844629119
20850,21.29041543317134
20851,22.591281518547746
20852,21.709441339296248
20853,20.26346635889261
20854,20.336979675756634
20855,19.85626650808931
20856,17.98693983916466
20857,14.354519020066938
20858,12.148344390234794
20859,10.037742958652405
20860,8.448798582399784
20861,7.563068373871107
20862,8.132352206924008
20863,9.431380560392249
20864,10.860823177692943
20865,14.034556573752548
20866,19.92045915760202
20867,22.084440937370736
20868,22.31841946954071
20869,19.73890204520784
20870,21.10569467302041
20871,20.839112574892326
20872,20.30722694985021
20873,20.780298299046315
20874,21.29172678466373
20875,22.59267299495305
20876,21.710778500066482
20877,20.264714456983235
20878,20.33823230179074
20879,19.85748952531039
20880,17.9880476497542
20881,14.355403110875068
20882,12.149092603365055
20883,10.038361180431325
20884,8.449318941539369
20885,7.563534181135095
20886,8.132853076219913
20887,9.431961436480801
20888,10.861492092752146
20889,14.03542095816318
20890,19.921686053105127
20891,22.085801111905887
20892,22.319794054748158
20893,19.740117758659217
20894,21.10699456684712
20895,20.84039605000224
20896,20.308477666273372
20897,20.781578151801448
20898,21.293038136156124
20899,22.594064471358354
20900,21.71211566083672
20901,20.265962555073862
20902,20.33948492782485
20903,19.858712542531467
20904,17.989155460343742
20905,14.3562872016832
20906,12.149840816495317
20907,10.038979402210243
20908,8.449839300678955
20909,7.563999988399083
20910,8.133353945515816
20911,9.432542312569353
20912,10.862161007811348
20913,14.036285342573809
20914,19.922912948608236
20915,22.087161286441038
20916,22.32116863995561
20917,19.741333472110597
20918,21.108294460673836
20919,20.841679525112156
20920,20.309728382696534
20921,20.782858004556577
20922,21.294349487648518
20923,22.59545594776366
20924,21.71345282160696
20925,20.26721065316449
20926,20.340737553858958
20927,19.85993555975255
20928,17.990263270933283
20929,14.35717129249133
20930,12.15058902962558
20931,10.039597623989163
20932,8.45035965981854
20933,7.564465795663072
20934,8.13385481481172
20935,9.433123188657905
20936,10.862829922870551
20937,14.03714972698444
20938,19.92413984411134
20939,22.08852146097619
20940,22.322543225163056
20941,19.742549185561977
20942,21.109594354500548
20943,20.84296300022207
20944,20.310979099119695
20945,20.784137857311705
20946,21.29566083914091
20947,22.596847424168967
20948,21.714789982377198
20949,20.268458751255118
20950,20.341990179893067
20951,19.86115857697363
20952,17.991371081522825
20953,14.35805538329946
20954,12.151337242755842
20955,10.040215845768083
20956,8.450880018958125
20957,7.56493160292706
20958,8.134355684107625
20959,9.433704064746458
20960,10.863498837929754
20961,14.038014111395071
20962,19.925366739614446
20963,22.08988163551134
20964,22.323917810370506
20965,19.743764899013353
20966,21.110894248327263
20967,20.844246475331985
20968,20.312229815542857
20969,20.785417710066838
20970,21.296972190633305
20971,22.598238900574273
20972,21.716127143147435
20973,20.26970684934574
20974,20.343242805927176
20975,19.862381594194712
20976,17.992478892112366
20977,14.358939474107592
20978,12.152085455886104
20979,10.040834067547003
20980,8.451400378097711
20981,7.565397410191047
20982,8.134856553403528
20983,9.43428494083501
20984,10.864167752988957
20985,14.038878495805701
20986,19.926593635117555
20987,22.09124181004649
20988,22.325292395577954
20989,19.744980612464733
20990,21.112194142153978
20991,20.8455299504419
20992,20.313480531966018
20993,20.786697562821967
20994,21.2982835421257
20995,22.59963037697958
20996,21.717464303917673
20997,20.27095494743637
20998,20.34449543196128
20999,19.86360461141579
21000,17.993586702701908
21001,14.359823564915722
21002,12.152833669016367
21003,10.041452289325923
21004,8.451920737237296
21005,7.5658632174550355
21006,8.135357422699434
21007,9.434865816923562
21008,10.864836668048158
21009,14.039742880216332
21010,19.92782053062066
21011,22.09260198458164
21012,22.326666980785404
21013,19.74619632591611
21014,21.11349403598069
21015,20.84681342555182
21016,20.31473124838918
21017,20.787977415577096
21018,21.29959489361809
21019,22.601021853384882
21020,21.71880146468791
21021,20.272203045526997
21022,20.34574805799539
21023,19.864827628636874
21024,17.99469451329145
21025,14.360707655723854
21026,12.153581882146629
21027,10.042070511104843
21028,8.452441096376882
21029,7.566329024719024
21030,8.135858291995337
21031,9.435446693012114
21032,10.86550558310736
21033,14.040607264626962
21034,19.929047426123766
21035,22.093962159116792
21036,22.32804156599285
21037,19.74741203936749
21038,21.114793929807405
21039,20.848096900661734
21040,20.315981964812345
21041,20.78925726833223
21042,21.300906245110482
21043,22.60241332979019
21044,21.720138625458148
21045,20.273451143617624
21046,20.3470006840295
21047,19.866050645857953
21048,17.99580232388099
21049,14.361591746531984
21050,12.15433009527689
21051,10.042688732883763
21052,8.452961455516467
21053,7.566794831983012
21054,8.13635916129124
21055,9.436027569100666
21056,10.866174498166563
21057,14.041471649037593
21058,19.930274321626875
21059,22.095322333651943
21060,22.329416151200302
21061,19.748627752818866
21062,21.116093823634117
21063,20.84938037577165
21064,20.317232681235506
21065,20.790537121087358
21066,21.302217596602876
21067,22.603804806195495
21068,21.72147578622839
21069,20.274699241708248
21070,20.34825331006361
21071,19.867273663079036
21072,17.99691013447053
21073,14.362475837340112
21074,12.155078308407152
21075,10.04330695466268
21076,8.453481814656053
21077,7.567260639246999
21078,8.136860030587144
21079,9.436608445189218
21080,10.866843413225764
21081,14.04233603344822
21082,19.931501217129977
21083,22.09668250818709
21084,22.330790736407746
21085,19.749843466270242
21086,21.11739371746083
21087,20.85066385088156
21088,20.318483397658664
21089,20.791816973842483
21090,21.303528948095266
21091,22.605196282600797
21092,21.722812946998623
21093,20.275947339798872
21094,20.349505936097714
21095,19.868496680300115
21096,17.99801794506007
21097,14.363359928148244
21098,12.155826521537413
21099,10.0439251764416
21100,8.454002173795638
21101,7.567726446510988
21102,8.137360899883047
21103,9.43718932127777
21104,10.867512328284967
21105,14.043200417858852
21106,19.932728112633086
21107,22.09804268272224
21108,22.332165321615197
21109,19.75105917972162
21110,21.118693611287544
21111,20.851947325991475
21112,20.319734114081825
21113,20.793096826597615
21114,21.30484029958766
21115,22.606587759006104
21116,21.72415010776886
21117,20.2771954378895
21118,20.350758562131823
21119,19.869719697521194
21120,17.99912575564961
21121,14.364244018956374
21122,12.156574734667675
21123,10.04454339822052
21124,8.454522532935224
21125,7.568192253774976
21126,8.137861769178953
21127,9.437770197366323
21128,10.86818124334417
21129,14.044064802269482
21130,19.93395500813619
21131,22.09940285725739
21132,22.333539906822644
21133,19.752274893173
21134,21.119993505114255
21135,20.85323080110139
21136,20.320984830504987
21137,20.794376679352744
21138,21.306151651080054
21139,22.60797923541141
21140,21.725487268539098
21141,20.278443535980127
21142,20.35201118816593
21143,19.870942714742277
21144,18.000233566239153
21145,14.365128109764504
21146,12.157322947797939
21147,10.04516161999944
21148,8.45504289207481
21149,7.568658061038963
21150,8.138362638474856
21151,9.438351073454875
21152,10.868850158403372
21153,14.044929186680113
21154,19.935181903639297
21155,22.100763031792543
21156,22.33491449203009
21157,19.753490606624375
21158,21.12129339894097
21159,20.854514276211308
21160,20.322235546928148
21161,20.795656532107873
21162,21.307463002572447
21163,22.609370711816716
21164,21.726824429309335
21165,20.279691634070755
21166,20.353263814200037
21167,19.872165731963356
21168,18.001341376828695
21169,14.366012200572635
21170,12.1580711609282
21171,10.04577984177836
21172,8.455563251214395
21173,7.569123868302952
21174,8.13886350777076
21175,9.438931949543427
21176,10.869519073462573
21177,14.045793571090742
21178,19.936408799142406
21179,22.102123206327693
21180,22.33628907723754
21181,19.754706320075755
21182,21.122593292767682
21183,20.855797751321223
21184,20.32348626335131
21185,20.796936384863006
21186,21.30877435406484
21187,22.610762188222022
21188,21.728161590079573
21189,20.280939732161382
21190,20.354516440234146
21191,19.87338874918444
21192,18.002449187418236
21193,14.366896291380765
21194,12.158819374058462
21195,10.046398063557278
21196,8.45608361035398
21197,7.56958967556694
21198,8.139364377066665
21199,9.43951282563198
21200,10.870187988521776
21201,14.046657955501374
21202,19.93763569464551
21203,22.103483380862844
21204,22.33766366244499
21205,19.75592203352713
21206,21.123893186594398
21207,20.857081226431138
21208,20.32473697977447
21209,20.798216237618135
21210,21.31008570555723
21211,22.61215366462733
21212,21.729498750849814
21213,20.282187830252006
21214,20.355769066268255
21215,19.87461176640552
21216,18.003556998007777
21217,14.367780382188895
21218,12.159567587188725
21219,10.047016285336198
21220,8.456603969493566
21221,7.570055482830928
21222,8.139865246362568
21223,9.440093701720532
21224,10.870856903580979
21225,14.047522339912003
21226,19.938862590148617
21227,22.104843555397995
21228,22.33903824765244
21229,19.75713774697851
21230,21.12519308042111
21231,20.858364701541053
21232,20.325987696197636
21233,20.799496090373264
21234,21.311397057049625
21235,22.613545141032635
21236,21.73083591162005
21237,20.283435928342634
21238,20.357021692302364
21239,19.8758347836266
21240,18.00466480859732
21241,14.368664472997027
21242,12.160315800318987
21243,10.047634507115118
21244,8.457124328633151
21245,7.570521290094916
21246,8.140366115658473
21247,9.440674577809084
21248,10.871525818640182
21249,14.048386724322635
21250,19.940089485651725
21251,22.106203729933146
21252,22.340412832859887
21253,19.758353460429888
21254,21.126492974247824
21255,20.859648176650968
21256,20.327238412620797
21257,20.800775943128397
21258,21.31270840854202
21259,22.61493661743794
21260,21.73217307239029
21261,20.28468402643326
21262,20.358274318336473
21263,19.87705780084768
21264,18.00577261918686
21265,14.369548563805157
21266,12.161064013449248
21267,10.048252728894038
21268,8.457644687772737
21269,7.570987097358905
21270,8.140866984954377
21271,9.441255453897636
21272,10.872194733699384
21273,14.049251108733264
21274,19.94131638115483
21275,22.107563904468297
21276,22.341787418067337
21277,19.759569173881268
21278,21.12779286807454
21279,20.860931651760882
21280,20.32848912904396
21281,20.802055795883525
21282,21.314019760034412
21283,22.616328093843247
21284,21.733510233160526
21285,20.28593212452389
21286,20.35952694437058
21287,19.878280818068763
21288,18.006880429776402
21289,14.370432654613289
21290,12.16181222657951
21291,10.048870950672958
21292,8.458165046912322
21293,7.571452904622893
21294,8.14136785425028
21295,9.441836329986188
21296,10.872863648758587
21297,14.050115493143895
21298,19.942543276657936
21299,22.108924079003447
21300,22.343162003274784
21301,19.760784887332647
21302,21.12909276190125
21303,20.862215126870797
21304,20.32973984546712
21305,20.803335648638654
21306,21.315331111526806
21307,22.617719570248553
21308,21.734847393930764
21309,20.287180222614516
21310,20.360779570404688
21311,19.879503835289842
21312,18.00798824036594
21313,14.371316745421417
21314,12.162560439709772
21315,10.049489172451876
21316,8.458685406051908
21317,7.571918711886879
21318,8.141868723546184
21319,9.442417206074738
21320,10.873532563817788
21321,14.050979877554523
21322,19.94377017216104
21323,22.110284253538595
21324,22.34453658848223
21325,19.76200060078402
21326,21.130392655727963
21327,20.863498601980712
21328,20.330990561890278
21329,20.804615501393783
21330,21.316642463019196
21331,22.619111046653856
21332,21.736184554701
21333,20.28842832070514
21334,20.362032196438793
21335,19.88072685251092
21336,18.00909605095548
21337,14.372200836229547
21338,12.163308652840033
21339,10.050107394230796
21340,8.459205765191493
21341,7.572384519150868
21342,8.142369592842087
21343,9.44299808216329
21344,10.874201478876989
21345,14.051844261965154
21346,19.944997067664147
21347,22.111644428073745
21348,22.34591117368968
21349,19.7632163142354
21350,21.131692549554675
21351,20.864782077090627
21352,20.33224127831344
21353,20.805895354148912
21354,21.31795381451159
21355,22.620502523059162
21356,21.73752171547124
21357,20.289676418795764
21358,20.363284822472902
21359,19.881949869732004
21360,18.010203861545023
21361,14.373084927037677
21362,12.164056865970295
21363,10.050725616009716
21364,8.459726124331079
21365,7.572850326414856
21366,8.142870462137992
21367,9.443578958251843
21368,10.874870393936192
21369,14.052708646375784
21370,19.946223963167256
21371,22.113004602608896
21372,22.34728575889713
21373,19.764432027686777
21374,21.13299244338139
21375,20.866065552200542
21376,20.3334919947366
21377,20.80717520690404
21378,21.319265166003984
21379,22.62189399946447
21380,21.738858876241476
21381,20.290924516886392
21382,20.36453744850701
21383,19.883172886953083
21384,18.011311672134564
21385,14.373969017845809
21386,12.164805079100558
21387,10.051343837788636
21388,8.460246483470664
21389,7.573316133678844
21390,8.143371331433896
21391,9.444159834340395
21392,10.875539308995394
21393,14.053573030786415
21394,19.94745085867036
21395,22.114364777144047
21396,22.348660344104577
21397,19.765647741138157
21398,21.134292337208105
21399,20.867349027310457
21400,20.334742711159763
21401,20.808455059659174
21402,21.320576517496374
21403,22.623285475869775
21404,21.740196037011714
21405,20.29217261497702
21406,20.36579007454112
21407,19.884395904174166
21408,18.012419482724106
21409,14.374853108653939
21410,12.16555329223082
21411,10.051962059567556
21412,8.46076684261025
21413,7.573781940942832
21414,8.1438722007298
21415,9.444740710428947
21416,10.876208224054597
21417,14.054437415197047
21418,19.948677754173467
21419,22.115724951679198
21420,22.350034929312024
21421,19.766863454589533
21422,21.135592231034817
21423,20.868632502420372
21424,20.335993427582927
21425,20.809734912414303
21426,21.321887868988767
21427,22.62467695227508
21428,21.74153319778195
21429,20.293420713067647
21430,20.367042700575226
21431,19.885618921395245
21432,18.013527293313647
21433,14.37573719946207
21434,12.166301505361082
21435,10.052580281346476
21436,8.461287201749835
21437,7.574247748206821
21438,8.144373070025704
21439,9.4453215865175
21440,10.8768771391138
21441,14.055301799607676
21442,19.949904649676576
21443,22.11708512621435
21444,22.351409514519474
21445,19.768079168040913
21446,21.136892124861532
21447,20.869915977530287
21448,20.33724414400609
21449,20.811014765169432
21450,21.32319922048116
21451,22.626068428680387
21452,21.74287035855219
21453,20.294668811158274
21454,20.368295326609335
21455,19.886841938616328
21456,18.01463510390319
21457,14.3766212902702
21458,12.167049718491345
21459,10.053198503125396
21460,8.46180756088942
21461,7.574713555470809
21462,8.144873939321608
21463,9.445902462606051
21464,10.877546054173003
21465,14.056166184018307
21466,19.95113154517968
21467,22.1184453007495
21468,22.35278409972692
21469,19.76929488149229
21470,21.138192018688244
21471,20.8711994526402
21472,20.33849486042925
21473,20.812294617924564
21474,21.324510571973555
21475,22.627459905085693
21476,21.74420751932243
21477,20.2959169092489
21478,20.369547952643444
21479,19.888064955837407
21480,18.01574291449273
21481,14.37750538107833
21482,12.167797931621607
21483,10.053816724904316
21484,8.462327920029006
21485,7.575179362734796
21486,8.145374808617513
21487,9.446483338694604
21488,10.878214969232205
21489,14.057030568428937
21490,19.952358440682787
21491,22.11980547528465
21492,22.354158684934372
21493,19.77051059494367
21494,21.13949191251496
21495,20.87248292775012
21496,20.339745576852412
21497,20.813574470679693
21498,21.32582192346595
21499,22.628851381491
21500,21.745544680092667
21501,20.297165007339526
21502,20.370800578677553
21503,19.88928797305849
21504,18.01685072508227
21505,14.378389471886463
21506,12.168546144751868
21507,10.054434946683234
21508,8.462848279168592
21509,7.575645169998785
21510,8.145875677913416
21511,9.447064214783156
21512,10.878883884291406
21513,14.057894952839568
21514,19.953585336185895
21515,22.121165649819805
21516,22.35553327014182
21517,19.771726308395046
21518,21.140791806341674
21519,20.873766402860035
21520,20.340996293275573
21521,20.814854323434822
21522,21.327133274958342
21523,22.630242857896306
21524,21.746881840862905
21525,20.298413105430154
21526,20.372053204711662
21527,19.89051099027957
21528,18.017958535671813
21529,14.379273562694591
21530,12.16929435788213
21531,10.055053168462154
21532,8.463368638308177
21533,7.576110977262772
21534,8.14637654720932
21535,9.447645090871708
21536,10.879552799350607
21537,14.058759337250196
21538,19.954812231688997
21539,22.122525824354952
21540,22.356907855349267
21541,19.772942021846422
21542,21.142091700168383
21543,20.875049877969946
21544,20.34224700969873
21545,20.81613417618995
21546,21.328444626450732
21547,22.63163433430161
21548,21.74821900163314
21549,20.299661203520778
21550,20.373305830745768
21551,19.89173400750065
21552,18.019066346261354
21553,14.380157653502721
21554,12.170042571012392
21555,10.055671390241073
21556,8.463888997447762
21557,7.57657678452676
21558,8.146877416505223
21559,9.44822596696026
21560,10.88022171440981
21561,14.059623721660827
21562,19.956039127192106
21563,22.123885998890103
21564,22.358282440556714
21565,19.774157735297802
21566,21.143391593995098
21567,20.87633335307986
21568,20.343497726121893
21569,20.81741402894508
21570,21.329755977943126
21571,22.633025810706915
21572,21.749556162403376
21573,20.300909301611405
21574,20.374558456779877
21575,19.89295702472173
21576,18.020174156850896
21577,14.381041744310853
21578,12.170790784142653
21579,10.056289612019992
21580,8.464409356587348
21581,7.5770425917907485
21582,8.147378285801127
21583,9.448806843048812
21584,10.880890629469013
21585,14.060488106071457
21586,19.95726602269521
21587,22.125246173425253
21588,22.359657025764164
21589,19.77537344874918
21590,21.14469148782181
21591,20.877616828189776
21592,20.344748442545054
21593,20.81869388170021
21594,21.331067329435516
21595,22.63441728711222
21596,21.750893323173617
21597,20.302157399702033
21598,20.375811082813982
21599,19.89418004194281
21600,18.021281967440437
21601,14.381925835118983
21602,12.171538997272917
21603,10.056907833798912
21604,8.464929715726933
21605,7.577508399054737
21606,8.147879155097032
21607,9.449387719137365
21608,10.881559544528216
21609,14.061352490482088
21610,19.958492918198317
21611,22.126606347960404
21612,22.36103161097161
21613,19.77658916220056
21614,21.145991381648525
21615,20.87890030329969
21616,20.34599915896822
21617,20.819973734455342
21618,21.33237868092791
21619,22.635808763517527
21620,21.752230483943855
21621,20.303405497792657
21622,20.37706370884809
21623,19.895403059163893
21624,18.02238977802998
21625,14.382809925927113
21626,12.172287210403178
21627,10.057526055577831
21628,8.465450074866519
21629,7.577974206318725
21630,8.148380024392935
21631,9.449968595225917
21632,10.882228459587418
21633,14.062216874892718
21634,19.959719813701426
21635,22.127966522495555
21636,22.362406196179062
21637,19.777804875651935
21638,21.14729127547524
21639,20.88018377840961
21640,20.34724987539138
21641,20.82125358721047
21642,21.333690032420304
21643,22.63720023992283
21644,21.753567644714092
21645,20.304653595883284
21646,20.3783163348822
21647,19.896626076384972
21648,18.02349758861952
21649,14.383694016735245
21650,12.17303542353344
21651,10.058144277356751
21652,8.465970434006104
21653,7.578440013582712
21654,8.14888089368884
21655,9.450549471314469
21656,10.882897374646621
21657,14.063081259303349
21658,19.96094670920453
21659,22.129326697030706
21660,22.36378078138651
21661,19.779020589103315
21662,21.14859116930195
21663,20.881467253519524
21664,20.348500591814542
21665,20.8225334399656
21666,21.335001383912697
21667,22.638591716328136
21668,21.75490480548433
21669,20.30590169397391
21670,20.37956896091631
21671,19.897849093606055
21672,18.02460539920906
21673,14.384578107543375
21674,12.173783636663703
21675,10.058762499135671
21676,8.46649079314569
21677,7.578905820846701
21678,8.149381762984744
21679,9.451130347403021
21680,10.883566289705822
21681,14.063945643713978
21682,19.962173604707637
21683,22.130686871565857
21684,22.365155366593957
21685,19.78023630255469
21686,21.149891063128667
21687,20.88275072862944
21688,20.349751308237703
21689,20.823813292720732
21690,21.33631273540509
21691,22.639983192733443
21692,21.756241966254567
21693,20.30714979206454
21694,20.380821586950418
21695,19.899072110827134
21696,18.025713209798603
21697,14.385462198351506
21698,12.174531849793965
21699,10.059380720914591
21700,8.467011152285275
21701,7.579371628110689
21702,8.149882632280647
21703,9.451711223491573
21704,10.884235204765025
21705,14.06481002812461
21706,19.963400500210746
21707,22.132047046101007
21708,22.366529951801407
21709,19.78145201600607
21710,21.15119095695538
21711,20.884034203739354
21712,20.351002024660865
21713,20.82509314547586
21714,21.337624086897485
21715,22.64137466913875
21716,21.757579127024805
21717,20.308397890155163
21718,20.382074212984524
21719,19.900295128048217
21720,18.026821020388144
21721,14.386346289159636
21722,12.175280062924227
21723,10.059998942693511
21724,8.46753151142486
21725,7.579837435374677
21726,8.150383501576552
21727,9.452292099580125
21728,10.884904119824228
21729,14.06567441253524
21730,19.96462739571385
21731,22.13340722063616
21732,22.367904537008855
21733,19.782667729457447
21734,21.152490850782094
21735,20.88531767884927
21736,20.352252741084026
21737,20.82637299823099
21738,21.338935438389875
21739,22.642766145544055
21740,21.758916287795046
21741,20.30964598824579
21742,20.383326839018633
21743,19.901518145269296
21744,18.027928830977682
21745,14.387230379967765
21746,12.176028276054488
21747,10.06061716447243
21748,8.468051870564446
21749,7.5803032426386645
21750,8.150884370872454
21751,9.452872975668676
21752,10.885573034883429
21753,14.066538796945869
21754,19.965854291216953
21755,22.134767395171306
21756,22.3692791222163
21757,19.783883442908824
21758,21.153790744608806
21759,20.88660115395918
21760,20.353503457507184
21761,20.82765285098612
21762,21.340246789882265
21763,22.644157621949358
21764,21.76025344856528
21765,20.310894086336415
21766,20.384579465052738
21767,19.902741162490376
21768,18.029036641567224
21769,14.388114470775896
21770,12.17677648918475
21771,10.061235386251349
21772,8.468572229704032
21773,7.580769049902653
21774,8.15138524016836
21775,9.453453851757228
21776,10.886241949942631
21777,14.067403181356498
21778,19.967081186720062
21779,22.136127569706456
21780,22.37065370742375
21781,19.785099156360204
21782,21.155090638435517
21783,20.8878846290691
21784,20.354754173930345
21785,20.82893270374125
21786,21.34155814137466
21787,22.645549098354664
21788,21.761590609335517
21789,20.312142184427042
21790,20.385832091086847
21791,19.90396417971146
21792,18.030144452156765
21793,14.388998561584026
21794,12.177524702315011
21795,10.061853608030269
21796,8.469092588843617
21797,7.58123485716664
21798,8.151886109464263
21799,9.45403472784578
21800,10.886910865001834
21801,14.06826756576713
21802,19.968308082223167
21803,22.137487744241607
21804,22.3720282926312
21805,19.78631486981158
21806,21.156390532262233
21807,20.889168104179014
21808,20.35600489035351
21809,20.830212556496377
21810,21.342869492867052
21811,22.64694057475997
21812,21.762927770105755
21813,20.31339028251767
21814,20.387084717120956
21815,19.905187196932538
21816,18.031252262746307
21817,14.389882652392156
21818,12.178272915445273
21819,10.062471829809189
21820,8.469612947983203
21821,7.581700664430628
21822,8.152386978760168
21823,9.454615603934332
21824,10.887579780061037
21825,14.06913195017776
21826,19.969534977726276
21827,22.138847918776758
21828,22.373402877838647
21829,19.78753058326296
21830,21.157690426088944
21831,20.89045157928893
21832,20.357255606776672
21833,20.83149240925151
21834,21.344180844359446
21835,22.648332051165276
21836,21.764264930875992
21837,20.314638380608297
21838,20.388337343155065
21839,19.90641021415362
21840,18.03236007333585
21841,14.390766743200288
21842,12.179021128575537
21843,10.063090051588109
21844,8.470133307122788
21845,7.582166471694617
21846,8.152887848056071
21847,9.455196480022884
21848,10.888248695120238
21849,14.06999633458839
21850,19.97076187322938
21851,22.14020809331191
21852,22.374777463046097
21853,19.788746296714336
21854,21.15899031991566
21855,20.891735054398843
21856,20.358506323199833
21857,20.83277226200664
21858,21.34549219585184
21859,22.649723527570583
21860,21.765602091646233
21861,20.31588647869892
21862,20.38958996918917
21863,19.9076332313747
21864,18.03346788392539
21865,14.391650834008418
21866,12.179769341705798
21867,10.063708273367027
21868,8.470653666262374
21869,7.582632278958605
21870,8.153388717351975
21871,9.455777356111437
21872,10.88891761017944
21873,14.07086071899902
21874,19.971988768732487
21875,22.14156826784706
21876,22.376152048253545
21877,19.789962010165716
21878,21.16029021374237
21879,20.89301852950876
21880,20.359757039622995
21881,20.834052114761768
21882,21.346803547344233
21883,22.65111500397589
21884,21.76693925241647
21885,20.31713457678955
21886,20.39084259522328
21887,19.908856248595782
21888,18.03457569451493
21889,14.392534924816548
21890,12.18051755483606
21891,10.064326495145947
21892,8.47117402540196
21893,7.583098086222593
21894,8.15388958664788
21895,9.456358232199989
21896,10.889586525238643
21897,14.071725103409651
21898,19.973215664235596
21899,22.14292844238221
21900,22.377526633460995
21901,19.791177723617093
21902,21.161590107569086
21903,20.894302004618673
21904,20.361007756046156
21905,20.8353319675169
21906,21.348114898836627
21907,22.652506480381195
21908,21.768276413186708
21909,20.318382674880176
21910,20.39209522125739
21911,19.91007926581686
21912,18.035683505104473
21913,14.39341901562468
21914,12.181265767966323
21915,10.064944716924867
21916,8.471694384541545
21917,7.583563893486581
21918,8.154390455943783
21919,9.456939108288541
21920,10.890255440297846
21921,14.072589487820283
21922,19.9744425597387
21923,22.14428861691736
21924,22.378901218668442
21925,19.792393437068473
21926,21.1628900013958
21927,20.895585479728588
21928,20.362258472469318
21929,20.83661182027203
21930,21.349426250329017
21931,22.6538979567865
21932,21.769613573956946
21933,20.319630772970804
21934,20.393347847291498
21935,19.911302283037944
21936,18.036791315694014
21937,14.39430310643281
21938,12.182013981096585
21939,10.065562938703787
21940,8.47221474368113
21941,7.58402970075057
21942,8.154891325239687
21943,9.457519984377093
21944,10.890924355357049
21945,14.073453872230912
21946,19.975669455241807
21947,22.145648791452512
21948,22.380275803875893
21949,19.79360915051985
21950,21.164189895222513
21951,20.896868954838503
21952,20.36350918889248
21953,20.83789167302716
21954,21.35073760182141
21955,22.655289433191808
21956,21.770950734727183
21957,20.32087887106143
21958,20.394600473325607
21959,19.912525300259023
21960,18.037899126283556
21961,14.395187197240942
21962,12.182762194226846
21963,10.066181160482707
21964,8.472735102820716
21965,7.584495508014558
21966,8.155392194535592
21967,9.458100860465645
21968,10.891593270416251
21969,14.074318256641543
21970,19.976896350744916
21971,22.147008965987663
21972,22.38165038908334
21973,19.79482486397123
21974,21.16548978904923
21975,20.89815242994842
21976,20.36475990531564
21977,20.83917152578229
21978,21.352048953313805
21979,22.656680909597114
21980,21.77228789549742
21981,20.322126969152055
21982,20.395853099359716
21983,19.913748317480106
21984,18.039006936873097
21985,14.39607128804907
21986,12.183510407357108
21987,10.066799382261625
21988,8.473255461960301
21989,7.5849613152785444
21990,8.155893063831494
21991,9.458681736554198
21992,10.892262185475452
21993,14.075182641052171
21994,19.978123246248018
21995,22.14836914052281
21996,22.383024974290787
21997,19.796040577422602
21998,21.166789682875937
21999,20.899435905058333
22000,20.366010621738802
22001,20.840451378537416
22002,21.353360304806195
22003,22.658072386002416
22004,21.773625056267658
22005,20.32337506724268
22006,20.39710572539382
22007,19.914971334701185
22008,18.04011474746264
22009,14.3969553788572
22010,12.18425862048737
22011,10.067417604040545
22012,8.473775821099887
22013,7.585427122542533
22014,8.156393933127399
22015,9.45926261264275
22016,10.892931100534653
22017,14.076047025462803
22018,19.979350141751123
22019,22.14972931505796
22020,22.384399559498235
22021,19.79725629087398
22022,21.168089576702652
22023,20.900719380168248
22024,20.367261338161963
22025,20.841731231292545
22026,21.35467165629859
22027,22.659463862407723
22028,21.774962217037896
22029,20.324623165333307
22030,20.398358351427927
22031,19.916194351922265
22032,18.04122255805218
22033,14.397839469665332
22034,12.185006833617631
22035,10.068035825819464
22036,8.474296180239472
22037,7.585892929806521
22038,8.156894802423302
22039,9.459843488731302
22040,10.893600015593856
22041,14.076911409873432
22042,19.980577037254232
22043,22.15108948959311
22044,22.38577414470568
22045,19.798472004325358
22046,21.169389470529367
22047,20.902002855278162
22048,20.368512054585125
22049,20.843011084047678
22050,21.355983007790982
22051,22.66085533881303
22052,21.776299377808133
22053,20.325871263423934
22054,20.399610977462036
22055,19.917417369143347
22056,18.04233036864172
22057,14.398723560473462
22058,12.185755046747895
22059,10.068654047598384
22060,8.474816539379058
22061,7.586358737070509
22062,8.157395671719208
22063,9.460424364819854
22064,10.894268930653059
22065,14.077775794284063
22066,19.981803932757337
22067,22.152449664128262
22068,22.387148729913132
22069,19.799687717776738
22070,21.17068936435608
22071,20.903286330388077
22072,20.369762771008286
22073,20.844290936802807
22074,21.357294359283376
22075,22.662246815218335
22076,21.77763653857837
22077,20.327119361514562
22078,20.400863603496145
22079,19.918640386364427
22080,18.043438179231263
22081,14.399607651281592
22082,12.186503259878156
22083,10.069272269377304
22084,8.475336898518643
22085,7.5868245443344975
22086,8.157896541015111
22087,9.461005240908406
22088,10.894937845712262
22089,14.078640178694693
22090,19.983030828260443
22091,22.153809838663413
22092,22.38852331512058
22093,19.800903431228114
22094,21.171989258182794
22095,20.904569805497992
22096,20.371013487431448
22097,20.845570789557936
22098,21.35860571077577
22099,22.66363829162364
22100,21.778973699348608
22101,20.32836745960519
22102,20.402116229530254
22103,19.91986340358551
22104,18.044545989820804
22105,14.400491742089724
22106,12.187251473008418
22107,10.069890491156224
22108,8.475857257658229
22109,7.587290351598486
22110,8.158397410311014
22111,9.461586116996958
22112,10.895606760771464
22113,14.079504563105324
22114,19.98425772376355
22115,22.155170013198568
22116,22.38989790032803
22117,19.802119144679494
22118,21.173289152009506
22119,20.90585328060791
22120,20.37226420385461
22121,20.84685064231307
22122,21.35991706226816
22123,22.665029768028948
22124,21.780310860118846
22125,20.329615557695814
22126,20.403368855564363
22127,19.92108642080659
22128,18.045653800410346
22129,14.401375832897854
22130,12.187999686138681
22131,10.070508712935144
22132,8.476377616797814
22133,7.587756158862474
22134,8.15889827960692
22135,9.46216699308551
22136,10.896275675830667
22137,14.080368947515954
22138,19.985484619266657
22139,22.15653018773372
22140,22.391272485535477
22141,19.803334858130874
22142,21.17458904583622
22143,20.907136755717826
22144,20.37351492027777
22145,20.848130495068197
22146,21.361228413760553
22147,22.666421244434254
22148,21.781648020889087
22149,20.33086365578644
22150,20.40462148159847
22151,19.92230943802767
22152,18.046761610999887
22153,14.402259923705984
22154,12.188747899268943
22155,10.071126934714064
22156,8.4768979759374
22157,7.588221966126461
22158,8.159399148902823
22159,9.462747869174063
22160,10.896944590889868
22161,14.081233331926585
22162,19.986711514769766
22163,22.15789036226887
22164,22.392647070742928
22165,19.80455057158225
22166,21.175888939662933
22167,20.90842023082774
22168,20.374765636700932
22169,20.849410347823326
22170,21.362539765252947
22171,22.66781272083956
22172,21.782985181659324
22173,20.33211175387707
22174,20.405874107632577
22175,19.92353245524875
22176,18.04786942158943
22177,14.403144014514115
22178,12.189496112399205
22179,10.071745156492982
22180,8.477418335076985
22181,7.58868777339045
22182,8.159900018198726
22183,9.463328745262615
22184,10.89761350594907
22185,14.082097716337215
22186,19.98793841027287
22187,22.15925053680402
22188,22.394021655950375
22189,19.80576628503363
22190,21.177188833489648
22191,20.909703705937655
22192,20.376016353124093
22193,20.85069020057846
22194,21.36385111674534
22195,22.669204197244863
22196,21.78432234242956
22197,20.333359851967696
22198,20.407126733666686
22199,19.924755472469833
22200,18.048977232178967
22201,14.404028105322244
22202,12.190244325529466
22203,10.072363378271902
22204,8.47793869421657
22205,7.589153580654437
22206,8.16040088749463
22207,9.463909621351165
22208,10.898282421008272
22209,14.082962100747844
22210,19.989165305775973
22211,22.160610711339167
22212,22.395396241157822
22213,19.806981998485004
22214,21.17848872731636
22215,20.910987181047567
22216,20.377267069547255
22217,20.851970053333584
22218,21.36516246823773
22219,22.67059567365017
22220,21.785659503199795
22221,20.33460795005832
22222,20.408379359700792
22223,19.925978489690912
22224,18.050085042768508
22225,14.404912196130374
22226,12.190992538659728
22227,10.072981600050822
22228,8.478459053356156
22229,7.589619387918425
22230,8.160901756790535
22231,9.464490497439717
22232,10.898951336067475
22233,14.083826485158474
22234,19.990392201279082
22235,22.161970885874318
22236,22.39677082636527
22237,19.808197711936383
22238,21.17978862114307
22239,20.91227065615748
22240,20.378517785970416
22241,20.853249906088717
22242,21.366473819730125
22243,22.67198715005547
22244,21.786996663970033
22245,20.335856048148948
22246,20.4096319857349
22247,19.92720150691199
22248,18.05119285335805
22249,14.405796286938505
22250,12.19174075178999
22251,10.07359982182974
22252,8.478979412495741
22253,7.5900851951824135
22254,8.161402626086439
22255,9.46507137352827
22256,10.899620251126677
22257,14.084690869569105
22258,19.991619096782188
22259,22.16333106040947
22260,22.39814541157272
22261,19.80941342538776
22262,21.181088514969787
22263,20.9135541312674
22264,20.379768502393578
22265,20.854529758843846
22266,21.36778517122252
22267,22.673378626460778
22268,21.788333824740274
22269,20.33710414623957
22270,20.41088461176901
22271,19.928424524133074
22272,18.05230066394759
22273,14.406680377746635
22274,12.192488964920253
22275,10.07421804360866
22276,8.479499771635327
22277,7.590551002446402
22278,8.161903495382342
22279,9.465652249616822
22280,10.90028916618588
22281,14.085555253979734
22282,19.992845992285293
22283,22.16469123494462
22284,22.399519996780167
22285,19.81062913883914
22286,21.182388408796502
22287,20.914837606377315
22288,20.38101921881674
22289,20.855809611598975
22290,21.369096522714912
22291,22.674770102866084
22292,21.78967098551051
22293,20.3383522443302
22294,20.41213723780312
22295,19.929647541354154
22296,18.053408474537132
22297,14.407564468554765
22298,12.193237178050515
22299,10.07483626538758
22300,8.480020130774912
22301,7.591016809710389
22302,8.162404364678247
22303,9.466233125705374
22304,10.900958081245083
22305,14.086419638390366
22306,19.994072887788402
22307,22.16605140947977
22308,22.400894581987615
22309,19.811844852290516
22310,21.183688302623214
22311,20.91612108148723
22312,20.3822699352399
22313,20.857089464354104
22314,21.370407874207302
22315,22.67616157927139
22316,21.79100814628075
22317,20.339600342420827
22318,20.413389863837224
22319,19.930870558575236
22320,18.054516285126674
22321,14.408448559362897
22322,12.193985391180776
22323,10.0754544871665
22324,8.480540489914498
22325,7.591482616974377
22326,8.16290523397415
22327,9.466814001793926
22328,10.901626996304284
22329,14.087284022800995
22330,19.995299783291507
22331,22.16741158401492
22332,22.402269167195065
22333,19.813060565741896
22334,21.18498819644993
22335,20.917404556597145
22336,20.383520651663062
22337,20.858369317109236
22338,21.371719225699696
22339,22.677553055676697
22340,21.792345307050986
22341,20.340848440511454
22342,20.414642489871333
22343,19.932093575796316
22344,18.055624095716215
22345,14.409332650171027
22346,12.194733604311038
22347,10.07607270894542
22348,8.481060849054083
22349,7.591948424238366
22350,8.163406103270054
22351,9.46739487788248
22352,10.902295911363487
22353,14.088148407211627
22354,19.996526678794613
22355,22.168771758550072
22356,22.403643752402512
22357,19.814276279193273
22358,21.18628809027664
22359,20.91868803170706
22360,20.384771368086223
22361,20.859649169864365
22362,21.37303057719209
22363,22.678944532082003
22364,21.793682467821224
22365,20.34209653860208
22366,20.415895115905442
22367,19.9333165930174
22368,18.056731906305757
22369,14.410216740979159
22370,12.195481817441301
22371,10.07669093072434
22372,8.481581208193669
22373,7.592414231502354
22374,8.16390697256596
22375,9.467975753971032
22376,10.90296482642269
22377,14.089012791622256
22378,19.99775357429772
22379,22.170131933085223
22380,22.405018337609963
22381,19.815491992644652
22382,21.187587984103356
22383,20.919971506816974
22384,20.386022084509385
22385,20.860929022619494
22386,21.374341928684483
22387,22.68033600848731
22388,21.79501962859146
22389,20.343344636692706
22390,20.41714774193955
22391,19.934539610238478
22392,18.057839716895298
22393,14.411100831787289
22394,12.196230030571563
22395,10.07730915250326
22396,8.482101567333254
22397,7.592880038766342
22398,8.164407841861863
22399,9.468556630059584
22400,10.903633741481892
22401,14.089877176032887
22402,19.998980469800827
22403,22.171492107620374
22404,22.40639292281741
22405,19.81670770609603
22406,21.188887877930068
22407,20.92125498192689
22408,20.387272800932546
22409,20.862208875374627
22410,21.375653280176877
22411,22.681727484892615
22412,21.796356789361703
22413,20.344592734783333
22414,20.41840036797366
22415,19.93576262745956
22416,18.058947527484836
22417,14.411984922595417
22418,12.196978243701823
22419,10.077927374282178
22420,8.48262192647284
22421,7.59334584603033
22422,8.164908711157766
22423,9.469137506148135
22424,10.904302656541093
22425,14.090741560443515
22426,20.000207365303933
22427,22.17285228215552
22428,22.407767508024858
22429,19.817923419547405
22430,21.19018777175678
22431,20.922538457036804
22432,20.388523517355708
22433,20.863488728129752
22434,21.376964631669267
22435,22.683118961297918
22436,21.797693950131936
22437,20.345840832873957
22438,20.419652994007766
22439,19.93698564468064
22440,18.060055338074378
22441,14.412869013403549
22442,12.197726456832086
22443,10.078545596061097
22444,8.483142285612425
22445,7.593811653294318
22446,8.16540958045367
22447,9.469718382236687
22448,10.904971571600296
22449,14.091605944854146
22450,20.001434260807038
22451,22.17421245669067
22452,22.409142093232305
22453,19.819139132998785
22454,21.191487665583495
22455,20.92382193214672
22456,20.38977423377887
22457,20.864768580884885
22458,21.37827598316166
22459,22.684510437703224
22460,21.799031110902174
22461,20.347088930964585
22462,20.42090562004187
22463,19.93820866190172
22464,18.06116314866392
22465,14.413753104211679
22466,12.198474669962348
22467,10.079163817840017
22468,8.48366264475201
22469,7.594277460558305
22470,8.165910449749575
22471,9.47029925832524
22472,10.905640486659498
22473,14.092470329264778
22474,20.002661156310143
22475,22.175572631225823
22476,22.410516678439755
22477,19.82035484645016
22478,21.192787559410206
22479,20.925105407256634
22480,20.39102495020203
22481,20.866048433640014
22482,21.37958733465405
22483,22.68590191410853
22484,21.80036827167241
22485,20.348337029055212
22486,20.42215824607598
22487,19.9394316791228
22488,18.06227095925346
22489,14.41463719501981
22490,12.19922288309261
22491,10.079782039618937
22492,8.484183003891596
22493,7.5947432678222935
22494,8.166411319045478
22495,9.470880134413791
22496,10.9063094017187
22497,14.093334713675407
22498,20.003888051813252
22499,22.176932805760973
22500,22.411891263647203
22501,19.82157055990154
22502,21.19408745323692
22503,20.92638888236655
22504,20.392275666625192
22505,20.867328286395143
22506,21.380898686146445
22507,22.687293390513837
22508,21.80170543244265
22509,20.349585127145836
22510,20.42341087211009
22511,19.94065469634388
22512,18.063378769843002
22513,14.415521285827941
22514,12.199971096222873
22515,10.080400261397857
22516,8.484703363031182
22517,7.595209075086282
22518,8.166912188341382
22519,9.471461010502344
22520,10.906978316777902
22521,14.094199098086039
22522,20.005114947316358
22523,22.178292980296124
22524,22.413265848854653
22525,19.822786273352918
22526,21.195387347063633
22527,20.927672357476464
22528,20.393526383048354
22529,20.868608139150275
22530,21.38221003763884
22531,22.688684866919143
22532,21.80304259321289
22533,20.350833225236464
22534,20.4246634981442
22535,19.941877713564963
22536,18.064486580432543
22537,14.416405376636071
22538,12.200719309353135
22539,10.081018483176775
22540,8.485223722170767
22541,7.59567488235027
22542,8.167413057637287
22543,9.472041886590896
22544,10.907647231837105
22545,14.095063482496668
22546,20.006341842819463
22547,22.179653154831275
22548,22.4146404340621
22549,19.824001986804298
22550,21.19668724089035
22551,20.92895583258638
22552,20.394777099471515
22553,20.869887991905404
22554,21.383521389131232
22555,22.69007634332445
22556,21.804379753983127
22557,20.35208132332709
22558,20.425916124178308
22559,19.943100730786043
22560,18.065594391022085
22561,14.417289467444201
22562,12.201467522483396
22563,10.081636704955695
22564,8.485744081310353
22565,7.596140689614258
22566,8.16791392693319
22567,9.472622762679448
22568,10.908316146896308
22569,14.0959278669073
22570,20.007568738322572
22571,22.181013329366426
22572,22.416015019269548
22573,19.825217700255674
22574,21.197987134717064
22575,20.930239307696297
22576,20.396027815894676
22577,20.871167844660533
22578,21.384832740623626
22579,22.691467819729755
22580,21.805716914753365
22581,20.35332942141772
22582,20.427168750212413
22583,19.944323748007125
22584,18.066702201611626
22585,14.418173558252333
22586,12.20221573561366
22587,10.082254926734615
22588,8.486264440449938
22589,7.5966064968782465
22590,8.168414796229094
22591,9.473203638768
22592,10.90898506195551
22593,14.096792251317929
22594,20.008795633825677
22595,22.182373503901577
22596,22.417389604477
22597,19.826433413707054
22598,21.199287028543775
22599,20.931522782806212
22600,20.397278532317838
22601,20.872447697415662
22602,21.38614409211602
22603,22.69285929613506
22604,21.807054075523602
22605,20.354577519508346
22606,20.428421376246522
22607,19.945546765228205
22608,18.067810012201168
22609,14.419057649060463
22610,12.202963948743921
22611,10.082873148513535
22612,8.486784799589524
22613,7.597072304142235
22614,8.168915665524999
22615,9.473784514856552
22616,10.909653977014713
22617,14.09765663572856
22618,20.010022529328783
22619,22.183733678436727
22620,22.418764189684445
22621,19.82764912715843
22622,21.20058692237049
22623,20.932806257916127
22624,20.398529248741003
22625,20.873727550170795
22626,21.387455443608413
22627,22.694250772540368
22628,21.80839123629384
22629,20.35582561759897
22630,20.42967400228063
22631,19.946769782449287
22632,18.06891782279071
22633,14.419941739868595
22634,12.203712161874183
22635,10.083491370292455
22636,8.487305158729109
22637,7.597538111406223
22638,8.169416534820902
22639,9.474365390945104
22640,10.910322892073914
22641,14.09852102013919
22642,20.01124942483189
22643,22.185093852971878
22644,22.420138774891896
22645,19.82886484060981
22646,21.201886816197202
22647,20.934089733026042
22648,20.399779965164164
22649,20.875007402925924
22650,21.388766795100803
22651,22.695642248945674
22652,21.809728397064077
22653,20.357073715689598
22654,20.43092662831474
22655,19.94799279967037
22656,18.07002563338025
22657,14.420825830676723
22658,12.204460375004444
22659,10.084109592071373
22660,8.487825517868695
22661,7.5980039186702095
22662,8.169917404116806
22663,9.474946267033655
22664,10.910991807133115
22665,14.09938540454982
22666,20.012476320334994
22667,22.186454027507025
22668,22.42151336009934
22669,19.830080554061187
22670,21.203186710023914
22671,20.935373208135953
22672,20.401030681587322
22673,20.876287255681053
22674,21.390078146593194
22675,22.697033725350977
22676,21.811065557834315
22677,20.358321813780222
22678,20.432179254348846
22679,19.949215816891446
22680,18.071133443969792
22681,14.421709921484853
22682,12.205208588134706
22683,10.084727813850293
22684,8.48834587700828
22685,7.598469725934198
22686,8.170418273412709
22687,9.475527143122209
22688,10.911660722192318
22689,14.100249788960449
22690,20.013703215838103
22691,22.18781420204218
22692,22.42288794530679
22693,19.831296267512563
22694,21.20448660385063
22695,20.936656683245868
22696,20.402281398010484
22697,20.877567108436182
22698,21.391389498085587
22699,22.698425201756283
22700,21.812402718604552
22701,20.35956991187085
22702,20.433431880382955
22703,19.95043883411253
22704,18.072241254559334
22705,14.422594012292985
22706,12.205956801264968
22707,10.085346035629213
22708,8.488866236147866
22709,7.598935533198186
22710,8.170919142708614
22711,9.476108019210761
22712,10.91232963725152
22713,14.10111417337108
22714,20.014930111341208
22715,22.18917437657733
22716,22.424262530514238
22717,19.832511980963943
22718,21.20578649767734
22719,20.937940158355786
22720,20.403532114433645
22721,20.87884696119131
22722,21.39270084957798
22723,22.69981667816159
22724,21.81373987937479
22725,20.360818009961477
22726,20.434684506417064
22727,19.951661851333608
22728,18.073349065148875
22729,14.423478103101115
22730,12.206705014395231
22731,10.085964257408133
22732,8.489386595287451
22733,7.599401340462174
22734,8.171420012004518
22735,9.476688895299313
22736,10.912998552310723
22737,14.10197855778171
22738,20.016157006844313
22739,22.19053455111248
22740,22.42563711572169
22741,19.83372769441532
22742,21.207086391504056
22743,20.9392236334657
22744,20.404782830856806
22745,20.880126813946443
22746,21.394012201070375
22747,22.701208154566896
22748,21.815077040145027
22749,20.362066108052105
22750,20.43593713245117
22751,19.95288486855469
22752,18.074456875738417
22753,14.424362193909245
22754,12.207453227525493
22755,10.086582479187053
22756,8.489906954427036
22757,7.599867147726163
22758,8.171920881300421
22759,9.477269771387865
22760,10.913667467369926
22761,14.102842942192341
22762,20.017383902347422
22763,22.191894725647632
22764,22.427011700929135
22765,19.8349434078667
22766,21.208386285330768
22767,20.940507108575616
22768,20.406033547279968
22769,20.881406666701572
22770,21.39532355256277
22771,22.702599630972202
22772,21.816414200915265
22773,20.36331420614273
22774,20.437189758485278
22775,19.95410788577577
22776,18.075564686327958
22777,14.425246284717376
22778,12.208201440655754
22779,10.087200700965973
22780,8.490427313566622
22781,7.600332954990151
22782,8.172421750596326
22783,9.477850647476417
22784,10.914336382429129
22785,14.10370732660297
22786,20.018610797850528
22787,22.193254900182783
22788,22.428386286136586
22789,19.836159121318076
22790,21.209686179157483
22791,20.94179058368553
22792,20.40728426370313
22793,20.8826865194567
22794,21.396634904055162
22795,22.703991107377504
22796,21.817751361685506
22797,20.364562304233356
22798,20.438442384519387
22799,19.955330902996852
22800,18.0766724969175
22801,14.426130375525506
22802,12.208949653786016
22803,10.087818922744892
22804,8.490947672706207
22805,7.600798762254138
22806,8.17292261989223
22807,9.47843152356497
22808,10.91500529748833
22809,14.104571711013602
22810,20.019837693353633
22811,22.194615074717934
22812,22.429760871344033
22813,19.837374834769456
22814,21.210986072984195
22815,20.943074058795446
22816,20.408534980126294
22817,20.88396637221183
22818,21.397946255547556
22819,22.70538258378281
22820,21.819088522455743
22821,20.365810402323984
22822,20.439695010553496
22823,19.95655392021793
22824,18.07778030750704
22825,14.427014466333636
22826,12.20969786691628
22827,10.088437144523812
22828,8.491468031845793
22829,7.6012645695181265
22830,8.173423489188133
22831,9.479012399653522
22832,10.915674212547533
22833,14.105436095424231
22834,20.021064588856742
22835,22.195975249253085
22836,22.43113545655148
22837,19.838590548220832
22838,21.21228596681091
22839,20.94435753390536
22840,20.409785696549456
22841,20.885246224966963
22842,21.399257607039946
22843,22.706774060188117
22844,21.82042568322598
22845,20.36705850041461
22846,20.440947636587605
22847,19.957776937439014
22848,18.078888118096582
22849,14.427898557141768
22850,12.210446080046541
22851,10.08905536630273
22852,8.491988390985378
22853,7.601730376782115
22854,8.173924358484038
22855,9.479593275742074
22856,10.916343127606735
22857,14.106300479834863
22858,20.022291484359847
22859,22.197335423788235
22860,22.43251004175893
22861,19.839806261672212
22862,21.213585860637625
22863,20.945641009015276
22864,20.411036412972617
22865,20.886526077722092
22866,21.40056895853234
22867,22.708165536593423
22868,21.82176284399622
22869,20.36830659850524
22870,20.44220026262171
22871,19.958999954660097
22872,18.07999592868612
22873,14.428782647949896
22874,12.211194293176801
22875,10.08967358808165
22876,8.492508750124962
22877,7.602196184046102
22878,8.174425227779942
22879,9.480174151830624
22880,10.917012042665936
22881,14.10716486424549
22882,20.023518379862953
22883,22.198695598323383
22884,22.43388462696638
22885,19.841021975123585
22886,21.214885754464333
22887,20.94692448412519
22888,20.412287129395775
22889,20.88780593047722
22890,21.40188031002473
22891,22.709557012998726
22892,21.823100004766452
22893,20.369554696595863
22894,20.443452888655816
22895,19.960222971881173
22896,18.08110373927566
22897,14.429666738758026
22898,12.211942506307064
22899,10.090291809860569
22900,8.49302910926455
22901,7.60266199131009
22902,8.174926097075845
22903,9.480755027919177
22904,10.917680957725139
22905,14.108029248656122
22906,20.024745275366058
22907,22.200055772858533
22908,22.435259212173825
22909,19.842237688574965
22910,21.21618564829105
22911,20.948207959235106
22912,20.413537845818936
22913,20.88908578323235
22914,21.403191661517123
22915,22.710948489404032
22916,21.824437165536693
22917,20.370802794686487
22918,20.444705514689925
22919,19.961445989102256
22920,18.082211549865203
22921,14.430550829566158
22922,12.212690719437326
22923,10.090910031639488
22924,8.493549468404135
22925,7.603127798574079
22926,8.175426966371749
22927,9.481335904007729
22928,10.918349872784342
22929,14.108893633066751
22930,20.025972170869164
22931,22.201415947393684
22932,22.436633797381273
22933,19.84345340202634
22934,21.21748554211776
22935,20.94949143434502
22936,20.414788562242098
22937,20.89036563598748
22938,21.404503013009517
22939,22.71233996580934
22940,21.82577432630693
22941,20.372050892777114
22942,20.445958140724034
22943,19.962669006323335
22944,18.083319360454745
22945,14.431434920374288
22946,12.213438932567588
22947,10.091528253418408
22948,8.49406982754372
22949,7.603593605838067
22950,8.175927835667654
22951,9.481916780096281
22952,10.919018787843545
22953,14.109758017477382
22954,20.027199066372273
22955,22.202776121928835
22956,22.438008382588723
22957,19.84466911547772
22958,21.218785435944476
22959,20.950774909454935
22960,20.41603927866526
22961,20.89164548874261
22962,21.40581436450191
22963,22.713731442214645
22964,21.82711148707717
22965,20.37329899086774
22966,20.447210766758143
22967,19.963892023544417
22968,18.084427171044286
22969,14.43231901118242
22970,12.214187145697851
22971,10.092146475197328
22972,8.494590186683306
22973,7.604059413102054
22974,8.176428704963557
22975,9.482497656184833
22976,10.919687702902745
22977,14.110622401888014
22978,20.028425961875378
22979,22.204136296463986
22980,22.43938296779617
22981,19.8458848289291
22982,21.22008532977119
22983,20.95205838456485
22984,20.41728999508842
22985,20.89292534149774
22986,21.407125715994304
22987,22.71512291861995
22988,21.828448647847406
22989,20.37454708895837
